#Initial conditions:
#x =  80 (kpc), y =  0 (kpc), z =  0 (kpc), vx =  0 (km/s), vy =  0 (km/s), vz =  80 (km/s),
# t, x, y, z, xmw, ymw, zmw, vxmw, vymw, vzmw, ax, ay, az, axmw, aymw, azmw
0.0 80.0 0.0 0.0 0.0 0.0 0.0 0.0 0.0 81.8169732043 0.0 0.0 0.0 -356.75379845 -0.0 -89.5714314683 52.026284245 0.0 0.0
-0.001 80.0 0.0 -0.0818169732043 0.0 0.0 0.0 0.35675379845 0.0 81.9065446358 0.0 0.0 0.0 -357.143681111 -0.0 -89.2136020867 0.0 0.0 0.0
-0.002 79.9992864924 0.0 -0.163813089272 0.0 0.0 0.0 0.714287362222 0.0 81.9954004085 0.0 0.0 0.0 -357.143681111 -0.0 -89.2136020867 0.0 0.0 0.0
-0.003 79.9985714253 0.0 -0.245807774021 0.0 0.0 0.0 1.07104116067 0.0 82.0849718399 0.0 0.0 0.0 -357.53701643 -0.0 -88.8578802342 0.0 0.0 0.0
-0.004 79.9971444101 0.0 -0.327983032951 0.0 0.0 0.0 1.42936139508 0.0 82.1731161689 0.0 0.0 0.0 -357.928143818 -0.0 -88.5068542153 0.0 0.0 0.0
-0.005 79.9957127025 0.0 -0.410154006359 0.0 0.0 0.0 1.78689744831 0.0 82.2619855484 0.0 0.0 0.0 -358.323604869 -0.0 -88.1605696385 0.0 0.0 0.0
-0.006 79.9935706152 0.0 -0.492507004048 0.0 0.0 0.0 2.14600860482 0.0 82.3494373082 0.0 0.0 0.0 -358.716890814 -0.0 -87.8197310716 0.0 0.0 0.0
-0.007 79.9914206853 0.0 -0.574852880976 0.0 0.0 0.0 2.50433122994 0.0 82.4376250105 0.0 0.0 0.0 -359.114544768 -0.0 -87.4827193407 0.0 0.0 0.0
-0.008 79.9885619527 0.0 -0.657382254069 0.0 0.0 0.0 2.86423769436 0.0 82.5244027469 0.0 0.0 0.0 -359.510052148 -0.0 -87.1494895963 0.0 0.0 0.0
-0.009 79.9856922099 0.0 -0.739901686469 0.0 0.0 0.0 3.22335133423 0.0 82.6119239897 0.0 0.0 0.0 -359.909952077 -0.0 -86.8182450966 0.0 0.0 0.0
-0.01 79.9821152501 0.0 -0.822606102049 0.0 0.0 0.0 3.58405759851 0.0 82.6980392371 0.0 0.0 0.0 -360.307723421 -0.0 -86.489143514 0.0 0.0 0.0
-0.011 79.9785240947 0.0 -0.905297764944 0.0 0.0 0.0 3.94396678107 0.0 82.7849022767 0.0 0.0 0.0 -360.709901623 -0.0 -86.1606363541 0.0 0.0 0.0
-0.012 79.9742273165 0.0 -0.988175906602 0.0 0.0 0.0 4.30547740176 0.0 82.8703605098 0.0 0.0 0.0 -361.109961169 -0.0 -85.8332034131 0.0 0.0 0.0
-0.013 79.9699131399 0.0 -1.07103848596 0.0 0.0 0.0 4.66618670341 0.0 82.9565686836 0.0 0.0 0.0 -361.51443495 -0.0 -85.5055014181 0.0 0.0 0.0
-0.014 79.9648949431 0.0 -1.15408904397 0.0 0.0 0.0 5.02850627166 0.0 83.0413715126 0.0 0.0 0.0 -361.916795152 -0.0 -85.1782469615 0.0 0.0 0.0
-0.015 79.9598561273 0.0 -1.23712122899 0.0 0.0 0.0 5.39002029372 0.0 83.1269251775 0.0 0.0 0.0 -362.323572718 -0.0 -84.8502041522 0.0 0.0 0.0
-0.016 79.9541149025 0.0 -1.32034289432 0.0 0.0 0.0 5.75315341709 0.0 83.2110719209 0.0 0.0 0.0 -362.728239079 -0.0 -84.5222472812 0.0 0.0 0.0
-0.017 79.9483498205 0.0 -1.40354337283 0.0 0.0 0.0 6.11547677187 0.0 83.295969672 0.0 0.0 0.0 -363.137323304 -0.0 -84.1931807092 0.0 0.0 0.0
-0.018 79.941883949 0.0 -1.48693483367 0.0 0.0 0.0 6.4794280637 0.0 83.3794582824 0.0 0.0 0.0 -363.544297237 -0.0 -83.8639884213 0.0 0.0 0.0
-0.019 79.9353909644 0.0 -1.57030228939 0.0 0.0 0.0 6.84256536635 0.0 83.4636976489 0.0 0.0 0.0 -363.955687828 -0.0 -83.5334765119 0.0 0.0 0.0
-0.02 79.9281988182 0.0 -1.65386222897 0.0 0.0 0.0 7.20733943936 0.0 83.5465252354 0.0 0.0 0.0 -364.364968286 -0.0 -83.202712166 0.0 0.0 0.0
-0.021 79.9209762855 0.0 -1.73739533987 0.0 0.0 0.0 7.57129530292 0.0 83.6301030732 0.0 0.0 0.0 -364.778663007 -0.0 -82.8704818726 0.0 0.0 0.0
-0.022 79.9130562276 0.0 -1.82112243511 0.0 0.0 0.0 7.93689676537 0.0 83.7122661991 0.0 0.0 0.0 -365.190247401 -0.0 -82.5379216236 0.0 0.0 0.0
-0.023 79.905102492 0.0 -1.90481987226 0.0 0.0 0.0 8.30167579772 0.0 83.7951789165 0.0 0.0 0.0 -365.606242772 -0.0 -82.2037863472 0.0 0.0 0.0
-0.024 79.896452876 0.0 -1.98871279295 0.0 0.0 0.0 8.66810925091 0.0 83.8766737718 0.0 0.0 0.0 -366.020127512 -0.0 -81.8692729479 0.0 0.0 0.0
-0.025 79.8877662735 0.0 -2.07257321981 0.0 0.0 0.0 9.03371605275 0.0 83.9589174624 0.0 0.0 0.0 -366.438419226 -0.0 -81.5330978935 0.0 0.0 0.0
-0.026 79.8783854439 0.0 -2.15663062787 0.0 0.0 0.0 9.40098608937 0.0 84.0397399676 0.0 0.0 0.0 -366.854600043 -0.0 -81.1965146031 0.0 0.0 0.0
-0.027 79.8689643013 0.0 -2.24065269974 0.0 0.0 0.0 9.76742525283 0.0 84.1213104916 0.0 0.0 0.0 -367.275183218 -0.0 -80.8581969487 0.0 0.0 0.0
-0.028 79.8588505934 0.0 -2.32487324885 0.0 0.0 0.0 10.1355364558 0.0 84.2014563615 0.0 0.0 0.0 -367.693655359 -0.0 -80.5194523821 0.0 0.0 0.0
-0.029 79.8486932284 0.0 -2.40905561247 0.0 0.0 0.0 10.5028125635 0.0 84.2823493963 0.0 0.0 0.0 -368.116524698 -0.0 -80.1789095924 0.0 0.0 0.0
-0.03 79.8378449683 0.0 -2.49343794765 0.0 0.0 0.0 10.8717695052 0.0 84.3618141807 0.0 0.0 0.0 -368.537283056 -0.0 -79.8379286613 0.0 0.0 0.0
-0.031 79.8269496894 0.0 -2.57777924083 0.0 0.0 0.0 11.2398871297 0.0 84.4420252537 0.0 0.0 0.0 -368.962432946 -0.0 -79.4950913994 0.0 0.0 0.0
-0.032 79.815365194 0.0 -2.66232199815 0.0 0.0 0.0 11.6096943711 0.0 84.5208043635 0.0 0.0 0.0 -369.385472142 -0.0 -79.1518097391 0.0 0.0 0.0
-0.033 79.8037303006 0.0 -2.74682084955 0.0 0.0 0.0 11.9786580739 0.0 84.6003288731 0.0 0.0 0.0 -369.812896723 -0.0 -78.8066174465 0.0 0.0 0.0
-0.034 79.7914078779 0.0 -2.8315226559 0.0 0.0 0.0 12.3493201645 0.0 84.6784175984 0.0 0.0 0.0 -370.238211163 -0.0 -78.4609778946 0.0 0.0 0.0
-0.035 79.7790316603 0.0 -2.91617768475 0.0 0.0 0.0 12.7191344963 0.0 84.7572508289 0.0 0.0 0.0 -370.667904373 -0.0 -78.1133759615 0.0 0.0 0.0
-0.036 79.7659696089 0.0 -3.00103715756 0.0 0.0 0.0 13.0906559733 0.0 84.8346443503 0.0 0.0 0.0 -371.095488281 -0.0 -77.7653262761 0.0 0.0 0.0
-0.037 79.7528503484 0.0 -3.08584697345 0.0 0.0 0.0 13.4613254728 0.0 84.9127814815 0.0 0.0 0.0 -371.52744389 -0.0 -77.415264187 0.0 0.0 0.0
-0.038 79.7390469579 0.0 -3.17086272052 0.0 0.0 0.0 13.8337108611 0.0 84.9894748787 0.0 0.0 0.0 -371.957291339 -0.0 -77.0647555347 0.0 0.0 0.0
-0.039 79.7251829266 0.0 -3.25582592321 0.0 0.0 0.0 14.2052400555 0.0 85.0669109925 0.0 0.0 0.0 -372.391502969 -0.0 -76.7121856255 0.0 0.0 0.0
-0.04 79.7106364778 0.0 -3.34099654251 0.0 0.0 0.0 14.578493867 0.0 85.1428992499 0.0 0.0 0.0 -372.823607899 -0.0 -76.3591715564 0.0 0.0 0.0
-0.041 79.6960259389 0.0 -3.42611172171 0.0 0.0 0.0 14.9508872713 0.0 85.2196293357 0.0 0.0 0.0 -373.260069038 -0.0 -76.0040481641 0.0 0.0 0.0
-0.042 79.6807347033 0.0 -3.51143580118 0.0 0.0 0.0 15.3250140051 0.0 85.2949073463 0.0 0.0 0.0 -373.69442527 -0.0 -75.6484839046 0.0 0.0 0.0
-0.043 79.6653759109 0.0 -3.5967015364 0.0 0.0 0.0 15.6982761218 0.0 85.3709263035 0.0 0.0 0.0 -374.133129289 -0.0 -75.2907627749 0.0 0.0 0.0
-0.044 79.649338151 0.0 -3.68217765378 0.0 0.0 0.0 16.0732802637 0.0 85.4454888718 0.0 0.0 0.0 -374.569730532 -0.0 -74.9326047299 0.0 0.0 0.0
-0.045 79.6332293504 0.0 -3.76759251414 0.0 0.0 0.0 16.4474155829 0.0 85.5207915129 0.0 0.0 0.0 -375.010670689 -0.0 -74.5722425963 0.0 0.0 0.0
-0.046 79.6164433199 0.0 -3.85321923681 0.0 0.0 0.0 16.823301605 0.0 85.594633357 0.0 0.0 0.0 -375.44951055 -0.0 -74.2114479933 0.0 0.0 0.0
-0.047 79.5995827471 0.0 -3.93878178086 0.0 0.0 0.0 17.198314604 0.0 85.6692144089 0.0 0.0 0.0 -375.89268 -0.0 -73.8484022739 0.0 0.0 0.0
-0.048 79.5820466907 0.0 -4.02455766563 0.0 0.0 0.0 17.575086965 0.0 85.7423301615 0.0 0.0 0.0 -376.333751989 -0.0 -73.4849289038 0.0 0.0 0.0
-0.049 79.5644325732 0.0 -4.11026644118 0.0 0.0 0.0 17.950982108 0.0 85.8161842667 0.0 0.0 0.0 -376.779143785 -0.0 -73.1191574792 0.0 0.0 0.0
-0.05 79.5461447265 0.0 -4.19619003416 0.0 0.0 0.0 18.3286452526 0.0 85.8885684765 0.0 0.0 0.0 -377.222441321 -0.0 -72.7529635052 0.0 0.0 0.0
-0.051 79.5277752827 0.0 -4.28204357814 0.0 0.0 0.0 18.7054269906 0.0 85.9616901937 0.0 0.0 0.0 -377.67004842 -0.0 -72.3844245531 0.0 0.0 0.0
-0.052 79.5087338725 0.0 -4.36811341455 0.0 0.0 0.0 19.0839853494 0.0 86.0333373256 0.0 0.0 0.0 -378.115564831 -0.0 -72.0154683676 0.0 0.0 0.0
-0.053 79.489607312 0.0 -4.45411025279 0.0 0.0 0.0 19.4616581203 0.0 86.1057211305 0.0 0.0 0.0 -378.565380097 -0.0 -71.6441202378 0.0 0.0 0.0
-0.054 79.4698105562 0.0 -4.54032485681 0.0 0.0 0.0 19.8411161096 0.0 86.1766255661 0.0 0.0 0.0 -379.013108625 -0.0 -71.2723603532 0.0 0.0 0.0
-0.055 79.4499250798 0.0 -4.62646350392 0.0 0.0 0.0 20.2196843375 0.0 86.2482658512 0.0 0.0 0.0 -379.465124831 -0.0 -70.8981614725 0.0 0.0 0.0
-0.056 79.4293711876 0.0 -4.71282138851 0.0 0.0 0.0 20.6000463593 0.0 86.318421889 0.0 0.0 0.0 -379.915058633 -0.0 -70.5235564375 0.0 0.0 0.0
-0.057 79.4087249871 0.0 -4.7991003477 0.0 0.0 0.0 20.9795144548 0.0 86.389312964 0.0 0.0 0.0 -380.36926846 -0.0 -70.146465235 0.0 0.0 0.0
-0.058 79.3874121586 0.0 -4.88560001444 0.0 0.0 0.0 21.3607848962 0.0 86.4587148195 0.0 0.0 0.0 -380.821400609 -0.0 -69.7689735689 0.0 0.0 0.0
-0.059 79.3660034173 0.0 -4.97201777734 0.0 0.0 0.0 21.741157256 0.0 86.5288509112 0.0 0.0 0.0 -381.277796653 -0.0 -69.3889484183 0.0 0.0 0.0
-0.06 79.3439298441 0.0 -5.05865771626 0.0 0.0 0.0 22.1233404895 0.0 86.5974927163 0.0 0.0 0.0 -381.73212014 -0.0 -69.0085285588 0.0 0.0 0.0
-0.061 79.3217567363 0.0 -5.14521276277 0.0 0.0 0.0 22.5046214963 0.0 86.6668679683 0.0 0.0 0.0 -382.190694907 -0.0 -68.6255277313 0.0 0.0 0.0
-0.062 79.2989206011 0.0 -5.2319914522 0.0 0.0 0.0 22.8877218793 0.0 86.7347437718 0.0 0.0 0.0 -382.647202643 -0.0 -68.2421379927 0.0 0.0 0.0
-0.063 79.2759812925 0.0 -5.31868225031 0.0 0.0 0.0 23.2699159016 0.0 86.8033522443 0.0 0.0 0.0 -383.107948554 -0.0 -67.8561196196 0.0 0.0 0.0
-0.064 79.2523807693 0.0 -5.40559815669 0.0 0.0 0.0 23.6539377764 0.0 86.870456011 0.0 0.0 0.0 -383.566633367 -0.0 -67.4697181584 0.0 0.0 0.0
-0.065 79.228673417 0.0 -5.49242316233 0.0 0.0 0.0 24.0370491683 0.0 86.9382916806 0.0 0.0 0.0 -384.029542756 -0.0 -67.0806401998 0.0 0.0 0.0
-0.066 79.204306671 0.0 -5.57947474005 0.0 0.0 0.0 24.421996862 0.0 87.0046172914 0.0 0.0 0.0 -384.490397396 -0.0 -66.6911849868 0.0 0.0 0.0
-0.067 79.1798294233 0.0 -5.66643239692 0.0 0.0 0.0 24.8060299631 0.0 87.0716740506 0.0 0.0 0.0 -384.955462512 -0.0 -66.2990052057 0.0 0.0 0.0
-0.068 79.1546946111 0.0 -5.75361808815 0.0 0.0 0.0 25.191907787 0.0 87.1372153019 0.0 0.0 0.0 -385.418479648 -0.0 -65.9064540016 0.0 0.0 0.0
-0.069 79.1294456077 0.0 -5.84070682752 0.0 0.0 0.0 25.5768669224 0.0 87.2034869586 0.0 0.0 0.0 -385.885692654 -0.0 -65.511129942 0.0 0.0 0.0
-0.07 79.1035408772 0.0 -5.92802506207 0.0 0.0 0.0 25.9636791723 0.0 87.2682375617 0.0 0.0 0.0 -386.350864877 -0.0 -65.1154402774 0.0 0.0 0.0
-0.071 79.0775182494 0.0 -6.01524330264 0.0 0.0 0.0 26.3495686522 0.0 87.3337178391 0.0 0.0 0.0 -386.820217851 -0.0 -64.7169292454 0.0 0.0 0.0
-0.072 79.0508417399 0.0 -6.10269249774 0.0 0.0 0.0 26.737319608 0.0 87.3976714202 0.0 0.0 0.0 -387.287537671 -0.0 -64.3180584028 0.0 0.0 0.0
-0.073 79.0240436101 0.0 -6.19003864548 0.0 0.0 0.0 27.1241437275 0.0 87.4623539559 0.0 0.0 0.0 -387.759022607 -0.0 -63.91631745 0.0 0.0 0.0
-0.074 78.9965934525 0.0 -6.27761720566 0.0 0.0 0.0 27.5128376532 0.0 87.5255040551 0.0 0.0 0.0 -388.228482455 -0.0 -63.5142224482 0.0 0.0 0.0
-0.075 78.9690179348 0.0 -6.36508965359 0.0 0.0 0.0 27.9006006924 0.0 87.5893824008 0.0 0.0 0.0 -388.70209126 -0.0 -63.109208357 0.0 0.0 0.0
-0.076 78.9407922511 0.0 -6.45279597046 0.0 0.0 0.0 28.2902418357 0.0 87.6517224718 0.0 0.0 0.0 -389.173683488 -0.0 -62.7038459372 0.0 0.0 0.0
-0.077 78.9124374512 0.0 -6.54039309854 0.0 0.0 0.0 28.6789480594 0.0 87.7147900927 0.0 0.0 0.0 -389.649407986 -0.0 -62.2955152075 0.0 0.0 0.0
-0.078 78.883434355 0.0 -6.62822555064 0.0 0.0 0.0 29.0695406517 0.0 87.7763135023 0.0 0.0 0.0 -390.123124866 -0.0 -61.8868418206 0.0 0.0 0.0
-0.079 78.8542983699 0.0 -6.71594572554 0.0 0.0 0.0 29.4591943091 0.0 87.8385637764 0.0 0.0 0.0 -390.600956793 -0.0 -61.4751506576 0.0 0.0 0.0
-0.08 78.8245159663 0.0 -6.8039026782 0.0 0.0 0.0 29.8507425653 0.0 87.8992638036 0.0 0.0 0.0 -391.076790518 -0.0 -61.0631224523 0.0 0.0 0.0
-0.081 78.7945968847 0.0 -6.89174425315 0.0 0.0 0.0 30.2413478902 0.0 87.9606900213 0.0 0.0 0.0 -391.556721525 -0.0 -60.6480267554 0.0 0.0 0.0
-0.082 78.7640332706 0.0 -6.97982405824 0.0 0.0 0.0 30.6338560083 0.0 88.0205598571 0.0 0.0 0.0 -392.034664209 -0.0 -60.2325995672 0.0 0.0 0.0
-0.083 78.7333291727 0.0 -7.06778537286 0.0 0.0 0.0 31.0254172186 0.0 88.0811552204 0.0 0.0 0.0 -392.516685861 -0.0 -59.8140549193 0.0 0.0 0.0
-0.084 78.7019824361 0.0 -7.15598636868 0.0 0.0 0.0 31.4188893801 0.0 88.1401879669 0.0 0.0 0.0 -392.996729534 -0.0 -59.3951842604 0.0 0.0 0.0
-0.085 78.6704913939 0.0 -7.2440657488 0.0 0.0 0.0 31.8114106777 0.0 88.1999455889 0.0 0.0 0.0 -393.480833311 -0.0 -58.9731459181 0.0 0.0 0.0
-0.086 78.6383596148 0.0 -7.33238625986 0.0 0.0 0.0 32.2058510467 0.0 88.2581342588 0.0 0.0 0.0 -393.962969925 -0.0 -58.5507869672 0.0 0.0 0.0
-0.087 78.6060796919 0.0 -7.42058201732 0.0 0.0 0.0 32.5993366175 0.0 88.3170471628 0.0 0.0 0.0 -394.449147218 -0.0 -58.1252098506 0.0 0.0 0.0
-0.088 78.5731609415 0.0 -7.50902035418 0.0 0.0 0.0 32.9947493411 0.0 88.3743846785 0.0 0.0 0.0 -394.933368644 -0.0 -57.6993174437 0.0 0.0 0.0
-0.089 78.5400901932 0.0 -7.59733078667 0.0 0.0 0.0 33.3892033548 0.0 88.4324457977 0.0 0.0 0.0 -395.421610756 -0.0 -57.2701561277 0.0 0.0 0.0
-0.09 78.5063825348 0.0 -7.68588524578 0.0 0.0 0.0 33.7855925626 0.0 88.4889249907 0.0 0.0 0.0 -395.907908782 -0.0 -56.8406847483 0.0 0.0 0.0
-0.091 78.472519008 0.0 -7.77430863665 0.0 0.0 0.0 34.1810191724 0.0 88.5461271672 0.0 0.0 0.0 -396.39820693 -0.0 -56.4078934533 0.0 0.0 0.0
-0.092 78.4380204965 0.0 -7.86297750011 0.0 0.0 0.0 34.5783889765 0.0 88.6017407776 0.0 0.0 0.0 -396.88657326 -0.0 -55.9747972236 0.0 0.0 0.0
-0.093 78.4033622301 0.0 -7.95151211821 0.0 0.0 0.0 34.9747923189 0.0 88.6580767617 0.0 0.0 0.0 -397.378918571 -0.0 -55.5383298061 0.0 0.0 0.0
-0.094 78.3680709118 0.0 -8.04029365364 0.0 0.0 0.0 35.3731468136 0.0 88.7128174372 0.0 0.0 0.0 -397.869344828 -0.0 -55.1015624783 0.0 0.0 0.0
-0.095 78.3326159365 0.0 -8.12893775308 0.0 0.0 0.0 35.7705310085 0.0 88.7682798866 0.0 0.0 0.0 -398.363728338 -0.0 -54.6613724227 0.0 0.0 0.0
-0.096 78.2965298498 0.0 -8.21783021341 0.0 0.0 0.0 36.1698742703 0.0 88.8221401821 0.0 0.0 0.0 -398.85620606 -0.0 -54.2208873693 0.0 0.0 0.0
-0.097 78.2602761879 0.0 -8.30658203345 0.0 0.0 0.0 36.5682434207 0.0 88.8767216614 0.0 0.0 0.0 -399.352618717 -0.0 -53.7769277786 0.0 0.0 0.0
-0.098 78.223393363 0.0 -8.39558365673 0.0 0.0 0.0 36.9685795077 0.0 88.9296940376 0.0 0.0 0.0 -399.847139356 -0.0 -53.3326779844 0.0 0.0 0.0
-0.099 78.1863390289 0.0 -8.48444142152 0.0 0.0 0.0 37.3679376994 0.0 88.9833870173 0.0 0.0 0.0 -400.345572014 -0.0 -52.8849015716 0.0 0.0 0.0
-0.1 78.1486574876 0.0 -8.57355043077 0.0 0.0 0.0 37.7692706518 0.0 89.0354638408 0.0 0.0 0.0 -400.842126937 -0.0 -52.436839624 0.0 0.0 0.0
-0.101 78.1108004876 0.0 -8.6625123492 0.0 0.0 0.0 38.1696219532 0.0 89.0882606966 0.0 0.0 0.0 -401.342570358 -0.0 -51.9851987034 0.0 0.0 0.0
-0.102 78.0723182437 0.0 -8.75172695216 0.0 0.0 0.0 38.5719557925 0.0 89.1394342382 0.0 0.0 0.0 -401.841150844 -0.0 -51.5332767841 0.0 0.0 0.0
-0.103 78.033656576 0.0 -8.84079121768 0.0 0.0 0.0 38.9733042549 0.0 89.1913272502 0.0 0.0 0.0 -402.343595696 -0.0 -51.077723262 0.0 0.0 0.0
-0.104 77.9943716352 0.0 -8.93010960666 0.0 0.0 0.0 39.3766429839 0.0 89.2415896847 0.0 0.0 0.0 -402.844192937 -0.0 -50.6218931377 0.0 0.0 0.0
-0.105 77.9549032901 0.0 -9.01927439705 0.0 0.0 0.0 39.7789926408 0.0 89.2925710364 0.0 0.0 0.0 -403.348629793 -0.0 -50.162378504 0.0 0.0 0.0
-0.106 77.9148136499 0.0 -9.10869474873 0.0 0.0 0.0 40.1833402435 0.0 89.3419144417 0.0 0.0 0.0 -403.85123489 -0.0 -49.7025915173 0.0 0.0 0.0
-0.107 77.8745366096 0.0 -9.19795822593 0.0 0.0 0.0 40.5866951106 0.0 89.3919762195 0.0 0.0 0.0 -404.357654227 -0.0 -49.2390668361 0.0 0.0 0.0
-0.108 77.8336402597 0.0 -9.28747870117 0.0 0.0 0.0 40.9920555519 0.0 89.4403925754 0.0 0.0 0.0 -404.862258189 -0.0 -48.7752738964 0.0 0.0 0.0
-0.109 77.7925524985 0.0 -9.37683901108 0.0 0.0 0.0 41.396419627 0.0 89.4895267673 0.0 0.0 0.0 -405.370650385 -0.0 -48.307689797 0.0 0.0 0.0
-0.11 77.7508474204 0.0 -9.46645775471 0.0 0.0 0.0 41.8027968527 0.0 89.537007955 0.0 0.0 0.0 -405.877244131 -0.0 -47.8398413714 0.0 0.0 0.0
-0.111 77.7089469048 0.0 -9.55591302699 0.0 0.0 0.0 42.2081741152 0.0 89.58520645 0.0 0.0 0.0 -406.387599464 -0.0 -47.368148039 0.0 0.0 0.0
-0.112 77.6664310722 0.0 -9.64562816761 0.0 0.0 0.0 42.6155720516 0.0 89.6317442511 0.0 0.0 0.0 -406.896173815 -0.0 -46.8961941424 0.0 0.0 0.0
-0.113 77.6237157607 0.0 -9.7351765155 0.0 0.0 0.0 43.0219664628 0.0 89.6789988383 0.0 0.0 0.0 -407.408482463 -0.0 -46.4203413087 0.0 0.0 0.0
-0.114 77.5803871393 0.0 -9.82498616528 0.0 0.0 0.0 43.4303890165 0.0 89.7245849337 0.0 0.0 0.0 -407.919028147 -0.0 -45.9442314948 0.0 0.0 0.0
-0.115 77.5368549826 0.0 -9.91462568536 0.0 0.0 0.0 43.8378045191 0.0 89.7708873013 0.0 0.0 0.0 -408.433280184 -0.0 -45.4641684284 0.0 0.0 0.0
-0.116 77.4927115302 0.0 -10.0045279399 0.0 0.0 0.0 44.2472555769 0.0 89.8155132705 0.0 0.0 0.0 -408.94578783 -0.0 -44.9838517796 0.0 0.0 0.0
-0.117 77.4483604715 0.0 -10.0942567119 0.0 0.0 0.0 44.6556960948 0.0 89.8608550048 0.0 0.0 0.0 -409.461973224 -0.0 -44.4995272763 0.0 0.0 0.0
-0.118 77.403400138 0.0 -10.1842496499 0.0 0.0 0.0 45.0661795233 0.0 89.9045123251 0.0 0.0 0.0 -409.976433359 -0.0 -44.0149523938 0.0 0.0 0.0
-0.119 77.3582281124 0.0 -10.2740657366 0.0 0.0 0.0 45.4756489615 0.0 89.9488849096 0.0 0.0 0.0 -410.494541971 -0.0 -43.5263147668 0.0 0.0 0.0
-0.12 77.3124488401 0.0 -10.3641474197 0.0 0.0 0.0 45.8871686073 0.0 89.9915649546 0.0 0.0 0.0 -411.010945022 -0.0 -43.0374297606 0.0 0.0 0.0
-0.121 77.2664537752 0.0 -10.4540488665 0.0 0.0 0.0 46.2976708516 0.0 90.0349597691 0.0 0.0 0.0 -411.530966605 -0.0 -42.5444268304 0.0 0.0 0.0
-0.122 77.2198534984 0.0 -10.5442173393 0.0 0.0 0.0 46.7102305405 0.0 90.0766538083 0.0 0.0 0.0 -412.049302891 -0.0 -42.0511793091 0.0 0.0 0.0
-0.123 77.1730333141 0.0 -10.6342021741 0.0 0.0 0.0 47.1217694573 0.0 90.1190621278 0.0 0.0 0.0 -412.571227083 -0.0 -41.5537583931 0.0 0.0 0.0
-0.124 77.1256099595 0.0 -10.7244554635 0.0 0.0 0.0 47.5353729947 0.0 90.1597613251 0.0 0.0 0.0 -413.09148682 -0.0 -41.0560954533 0.0 0.0 0.0
-0.125 77.0779625681 0.0 -10.8145216967 0.0 0.0 0.0 47.947952431 0.0 90.2011743187 0.0 0.0 0.0 -413.615303145 -0.0 -40.5542033556 0.0 0.0 0.0
-0.126 77.0297140546 0.0 -10.9048578121 0.0 0.0 0.0 48.362603601 0.0 90.2408697318 0.0 0.0 0.0 -414.137476435 -0.0 -40.0520715713 0.0 0.0 0.0
-0.127 76.9812373609 0.0 -10.9950034362 0.0 0.0 0.0 48.7762273839 0.0 90.2812784618 0.0 0.0 0.0 -414.663174301 -0.0 -39.5456545716 0.0 0.0 0.0
-0.128 76.9321615999 0.0 -11.0854203691 0.0 0.0 0.0 49.1919299496 0.0 90.3199610409 0.0 0.0 0.0 -415.187251135 -0.0 -39.0389999834 0.0 0.0 0.0
-0.129 76.882853501 0.0 -11.1756433583 0.0 0.0 0.0 49.6066018861 0.0 90.3593564618 0.0 0.0 0.0 -415.714819826 -0.0 -38.5280038265 0.0 0.0 0.0
-0.13 76.8329483961 0.0 -11.266139082 0.0 0.0 0.0 50.0233595892 0.0 90.3970170486 0.0 0.0 0.0 -416.240790078 -0.0 -38.0167719303 0.0 0.0 0.0
-0.131 76.7828067819 0.0 -11.3564373924 0.0 0.0 0.0 50.4390834663 0.0 90.4353900056 0.0 0.0 0.0 -416.770218757 -0.0 -37.501141815 0.0 0.0 0.0
-0.132 76.7320702292 0.0 -11.447009862 0.0 0.0 0.0 50.8569000267 0.0 90.4720193322 0.0 0.0 0.0 -417.298072182 -0.0 -36.9852775509 0.0 0.0 0.0
-0.133 76.6810929818 0.0 -11.537381431 0.0 0.0 0.0 51.2736796106 0.0 90.5093605607 0.0 0.0 0.0 -417.829349882 -0.0 -36.4649581183 0.0 0.0 0.0
-0.134 76.6295228699 0.0 -11.6280285831 0.0 0.0 0.0 51.6925587265 0.0 90.5449492484 0.0 0.0 0.0 -418.359076112 -0.0 -35.9444058588 0.0 0.0 0.0
-0.135 76.5777078643 0.0 -11.7184713295 0.0 0.0 0.0 52.1103977629 0.0 90.5812493725 0.0 0.0 0.0 -418.892191738 -0.0 -35.4193411812 0.0 0.0 0.0
-0.136 76.5253020744 0.0 -11.8091910819 0.0 0.0 0.0 52.53034311 0.0 90.6157879308 0.0 0.0 0.0 -419.423780279 -0.0 -34.8940447197 0.0 0.0 0.0
-0.137 76.4726471781 0.0 -11.8997029054 0.0 0.0 0.0 52.9492453234 0.0 90.6510374619 0.0 0.0 0.0 -419.958722599 -0.0 -34.3641782884 0.0 0.0 0.0
-0.138 76.4194035838 0.0 -11.9904931568 0.0 0.0 0.0 53.3702605552 0.0 90.6845162874 0.0 0.0 0.0 -420.492162824 -0.0 -33.834080827 0.0 0.0 0.0
