# MW x(kpc), MW y(kpc), MW z(kpc), MW vx(km/s), MW vy(km/s), MW vz(km/s) LMC x(kpc), LMC y(kpc), LMC z(kpc), LMC vx(km/s), LMC vy(km/s), LMC vz(km/s) 
1.930710 3.539903 -1.926767 1.004423 2.778314 -1.041654 24.655674 277.926875 58.521695 4.815629 -58.508987 -77.498476 
1.950739 3.594173 -1.946904 1.017640 2.888610 -0.977218 24.714842 276.695500 57.002629 4.699812 -59.813465 -77.768643 
1.971567 3.656254 -1.966835 0.947073 3.086290 -1.014575 24.789760 275.506559 55.433377 4.562087 -61.125104 -78.028970 
1.991995 3.722356 -1.986882 0.813962 3.267651 -1.018905 24.890397 274.264571 53.882801 4.430096 -62.444572 -78.300849 
2.008949 3.786497 -2.007248 0.762643 3.315440 -0.987791 24.970603 272.994229 52.261723 4.289535 -63.776671 -78.556568 
2.024566 3.854162 -2.026906 0.767262 3.287022 -0.979546 25.056286 271.700972 50.729131 4.148690 -65.131355 -78.827298 
2.040605 3.921899 -2.046390 0.749867 3.393263 -0.957788 25.162715 270.392302 49.155733 4.008713 -66.499010 -79.085322 
2.054485 3.992192 -2.066209 0.687155 3.423851 -0.997829 25.239443 269.009967 47.614476 3.865066 -67.889908 -79.328279 
2.072285 4.059677 -2.085686 0.794762 3.534752 -0.977224 25.237460 267.678927 45.985159 3.719640 -69.296139 -79.565217 
2.087184 4.132248 -2.105090 0.689271 3.536826 -0.961033 25.338523 266.273033 44.415288 3.579200 -70.707052 -79.804081 
2.104419 4.203473 -2.124471 0.860800 3.496367 -0.949800 25.393180 264.873759 42.799569 3.459206 -72.147840 -80.020235 
2.128252 4.277509 -2.143681 0.952636 3.690747 -1.011348 25.511314 263.407663 41.168856 3.313811 -73.607098 -80.257883 
2.145776 4.352823 -2.164776 0.868407 3.804425 -1.039803 25.579242 261.897912 39.538737 3.151557 -75.081825 -80.487805 
2.167357 4.429477 -2.186097 0.852670 3.892557 -1.107258 25.629372 260.380035 37.993134 3.009849 -76.572525 -80.713214 
2.184887 4.510797 -2.208701 0.853664 4.081737 -1.169008 25.663933 258.846941 36.400198 2.868429 -78.072312 -80.914070 
2.202302 4.593034 -2.232182 0.847638 4.168042 -1.170196 25.689540 257.320046 34.757426 2.725578 -79.599503 -81.123710 
2.223922 4.680091 -2.255479 0.917274 4.307870 -1.157635 25.792142 255.681212 33.073828 2.560857 -81.136807 -81.326616 
2.245986 4.766070 -2.278785 1.001101 4.510199 -1.187202 25.862869 254.012833 31.500615 2.405480 -82.687878 -81.535503 
2.267184 4.856874 -2.302445 1.065879 4.681101 -1.195802 25.893707 252.350389 29.860375 2.255967 -84.255959 -81.734332 
2.295477 4.954386 -2.327206 1.107982 4.890355 -1.257791 25.929695 250.634099 28.230273 2.098965 -85.864980 -81.921429 
2.316025 5.052029 -2.352963 1.074020 4.920434 -1.312122 25.995608 248.894809 26.560367 1.939744 -87.466066 -82.112287 
2.342347 5.153310 -2.379683 1.158508 5.006525 -1.347782 25.983839 247.144452 24.934746 1.767026 -89.095640 -82.316711 
2.367637 5.253590 -2.407283 1.283411 5.235327 -1.422059 26.099363 245.303175 23.319186 1.564398 -90.743532 -82.521084 
2.393253 5.359223 -2.435630 1.134095 5.480194 -1.419582 26.057314 243.557363 21.604355 1.390031 -92.429194 -82.718451 
2.416785 5.469621 -2.463874 1.221647 5.580948 -1.381532 26.066027 241.655776 19.982416 1.215611 -94.163874 -82.901789 
2.446156 5.584291 -2.490827 1.088642 5.823852 -1.329923 26.117703 239.766564 18.267270 1.035285 -95.920746 -83.076329 
2.467782 5.701650 -2.516094 1.013563 5.753964 -1.195346 26.105676 237.851219 16.600177 0.844544 -97.728155 -83.235676 
2.493041 5.818980 -2.540375 1.144422 5.945062 -1.234457 26.151931 235.856951 15.027110 0.648132 -99.562107 -83.395134 
2.515468 5.938125 -2.564734 1.145827 6.102944 -1.174679 26.143040 233.828013 13.307726 0.442012 -101.429788 -83.535077 
2.540589 6.061616 -2.587745 1.117113 6.160757 -1.118672 26.129651 231.802738 11.668853 0.222768 -103.347208 -83.679040 
2.564309 6.185765 -2.608596 1.114459 6.215053 -0.970630 26.183537 229.734896 9.953212 0.019532 -105.285395 -83.815355 
2.588973 6.310349 -2.627087 1.107183 6.233626 -0.903053 26.181862 227.573550 8.255392 -0.197173 -107.273341 -83.920685 
2.613794 6.436019 -2.644681 1.239234 6.362712 -0.803935 26.105155 225.498633 6.579322 -0.420514 -109.307772 -84.012045 
2.642617 6.564853 -2.659759 1.160810 6.604389 -0.716809 26.086426 223.197172 4.925387 -0.649448 -111.385729 -84.088355 
2.666532 6.696992 -2.674105 1.257366 6.750807 -0.711618 26.153122 220.973288 3.176225 -0.891199 -113.516859 -84.143144 
2.695096 6.835077 -2.687935 1.263671 6.867306 -0.670828 26.118127 218.699605 1.506638 -1.137884 -115.695732 -84.179672 
2.720704 6.972410 -2.701137 1.380765 7.026841 -0.668141 26.083853 216.353886 -0.092205 -1.385857 -117.904041 -84.184480 
2.749745 7.113785 -2.714393 1.417550 7.152188 -0.668886 25.994471 214.044589 -1.844487 -1.640190 -120.160233 -84.158534 
2.780855 7.257596 -2.728448 1.413053 7.293845 -0.720848 26.093384 211.544090 -3.502325 -1.895936 -122.462662 -84.134848 
2.807453 7.402836 -2.743384 1.455604 7.455248 -0.787798 25.985680 209.105370 -5.125820 -2.159433 -124.829437 -84.090457 
2.840710 7.556117 -2.760291 1.412977 7.648354 -0.887085 25.966222 206.513117 -6.893479 -2.437324 -127.240493 -84.010772 
2.869934 7.708778 -2.779073 1.529928 7.683201 -1.009977 25.871529 203.941500 -8.583100 -2.734809 -129.683660 -83.902267 
2.901639 7.864911 -2.800487 1.573576 7.979407 -1.100556 25.836422 201.309740 -10.221238 -3.033287 -132.168726 -83.787468 
2.934812 8.027496 -2.822614 1.629158 8.203908 -1.101859 25.812724 198.587174 -11.822870 -3.348693 -134.712259 -83.647766 
2.966832 8.194213 -2.844294 1.621493 8.374940 -1.062857 25.712433 195.978670 -13.519843 -3.654575 -137.347963 -83.478000 
3.001702 8.362701 -2.865772 1.540251 8.592767 -1.123567 25.624532 193.146004 -15.280553 -3.980449 -140.033110 -83.285485 
3.030454 8.537064 -2.889774 1.493213 8.737446 -1.264747 25.488340 190.387500 -16.912846 -4.332682 -142.783395 -83.040849 
3.062650 8.710984 -2.915087 1.467773 8.855610 -1.251944 25.483112 187.461506 -18.507584 -4.691685 -145.619690 -82.735350 
3.090801 8.891537 -2.940061 1.429839 8.984610 -1.225674 25.363872 184.540411 -20.180731 -5.072353 -148.501130 -82.422677 
3.121765 9.072762 -2.964872 1.484436 9.240988 -1.261248 25.243909 181.503736 -21.855266 -5.480102 -151.471828 -82.064380 
3.151190 9.260503 -2.989341 1.528530 9.478115 -1.176310 25.098262 178.493325 -23.524464 -5.878890 -154.512215 -81.659156 
3.184110 9.451581 -3.011965 1.574040 9.745732 -1.109062 24.954835 175.355813 -25.097775 -6.283452 -157.647744 -81.204316 
3.213529 9.647942 -3.033945 1.526954 9.968488 -1.123878 24.827698 172.212299 -26.706351 -6.724351 -160.872260 -80.699057 
3.243579 9.850367 -3.057294 1.506096 10.133265 -1.182625 24.743340 168.911146 -28.330084 -7.159176 -164.198386 -80.125435 
3.273887 10.056552 -3.081625 1.609684 10.453187 -1.259505 24.554210 165.592304 -29.943467 -7.629180 -167.617540 -79.487061 
3.307145 10.269245 -3.106964 1.690020 10.682734 -1.274257 24.444291 162.176630 -31.497135 -8.106845 -171.142477 -78.776150 
3.341907 10.484470 -3.132462 1.692284 10.941828 -1.268579 24.214587 158.792949 -32.994882 -8.616952 -174.764205 -77.991123 
3.374824 10.708399 -3.158113 1.749615 11.131859 -1.300515 24.140265 155.205434 -34.634463 -9.158213 -178.506105 -77.125147 
3.410394 10.934329 -3.185481 1.898061 11.372921 -1.442593 23.806569 151.659496 -36.195062 -9.732527 -182.376636 -76.162793 
3.450278 11.164722 -3.216021 1.886783 11.677990 -1.630442 23.703522 147.872480 -37.700794 -10.346246 -186.381877 -75.103809 
3.485767 11.400727 -3.251490 1.845385 11.813321 -1.888657 23.496566 144.177332 -39.131750 -10.974539 -190.527210 -73.949285 
3.524807 11.639873 -3.291481 1.859258 11.957990 -2.114303 23.281545 140.200701 -40.580092 -11.637133 -194.823930 -72.668962 
3.562648 11.880741 -3.335760 1.976205 12.118349 -2.318731 22.999112 136.339466 -42.037546 -12.346616 -199.269853 -71.248403 
3.601786 12.124824 -3.385072 2.120192 12.402268 -2.622744 22.723039 132.310786 -43.497117 -13.100940 -203.891830 -69.667059 
3.643417 12.376298 -3.439749 2.197410 12.667988 -2.849597 22.448391 128.207484 -44.762700 -13.887303 -208.712155 -67.902121 
3.691157 12.630127 -3.498320 2.334124 13.011453 -3.016560 22.168701 124.059129 -46.122381 -14.736345 -213.706797 -65.954106 
3.737756 12.897607 -3.561057 2.382499 13.404408 -3.211565 21.900168 119.595447 -47.432897 -15.628079 -218.913891 -63.774297 
3.787477 13.165415 -3.627461 2.606168 13.851867 -3.460383 21.593843 115.192349 -48.751332 -16.568034 -224.337719 -61.358830 
3.837739 13.448169 -3.699624 2.700197 14.383511 -3.737450 21.282982 110.629105 -49.985949 -17.580903 -229.963680 -58.639415 
3.889902 13.742851 -3.776828 2.632522 15.020432 -4.017927 20.873559 105.965522 -51.094794 -18.647440 -235.825039 -55.619205 
3.937664 14.048991 -3.861466 2.528572 15.471520 -4.419209 20.476613 101.220549 -52.149521 -19.794827 -241.910847 -52.217773 
3.990217 14.363537 -3.953017 2.679189 15.956679 -4.728146 20.035267 96.356790 -53.156210 -21.031993 -248.249096 -48.401845 
4.042895 14.686653 -4.050362 2.872729 16.457612 -5.044882 19.639311 91.354095 -54.078362 -22.370987 -254.811371 -44.106316 
4.100743 15.021049 -4.154984 2.957009 16.990606 -5.430316 19.174702 86.059210 -54.949620 -23.802117 -261.634710 -39.238071 
4.158583 15.366993 -4.268347 3.038737 17.423601 -5.878566 18.653336 80.810109 -55.648309 -25.374099 -268.684833 -33.750753 
4.219331 15.724031 -4.390616 3.183936 17.962175 -6.386097 18.183368 75.401512 -56.262754 -27.054027 -275.927174 -27.488273 
4.282594 16.088833 -4.524839 3.332651 18.483157 -7.055030 17.603531 69.727493 -56.768526 -28.892464 -283.351839 -20.322466 
4.348064 16.464928 -4.673243 3.514316 18.991191 -7.832040 17.004501 64.022673 -57.042338 -30.883979 -290.888032 -12.129360 
4.418287 16.856148 -4.839741 3.691399 19.442427 -8.845175 16.344671 58.095616 -57.177861 -32.995889 -298.412850 -2.729388 
4.495027 17.249378 -5.028270 4.070657 19.945943 -10.007697 15.689113 52.092489 -57.152507 -35.302423 -305.777859 7.999860 
4.580970 17.656755 -5.240790 4.415179 20.597789 -11.274761 14.922457 45.940934 -56.928274 -37.777570 -312.739601 20.286035 
4.671577 18.075407 -5.479437 4.630304 21.071654 -12.612610 14.162269 39.583328 -56.322531 -40.421285 -319.007075 34.324898 
4.767378 18.503230 -5.746609 4.827327 21.363713 -14.113449 13.309564 33.230359 -55.434267 -43.169310 -324.153474 50.185892 
4.869170 18.935785 -6.046107 5.142006 21.472560 -15.921039 12.450163 26.623049 -54.236405 -46.014325 -327.555846 67.930199 
4.976631 19.368126 -6.385151 5.331019 21.406713 -17.993481 11.436416 20.142999 -52.630991 -48.785424 -328.641229 87.328220 
5.086019 19.797399 -6.767612 5.473375 21.080092 -20.254020 10.479692 13.545779 -50.677341 -51.417164 -326.628281 107.892192 
5.197618 20.214999 -7.195887 5.575887 20.520713 -22.516562 9.383695 7.045653 -48.284060 -53.674892 -321.062812 128.869049 
5.311353 20.615670 -7.666417 5.463642 19.556567 -24.521757 8.307179 0.671486 -45.462012 -55.424336 -311.710126 149.159204 
5.421028 20.994364 -8.174774 5.487956 18.188598 -26.251749 7.189010 -5.362553 -42.194996 -56.559934 -298.936840 167.750168 
5.534043 21.344456 -8.715204 5.580024 16.774631 -27.790408 6.094582 -11.243338 -38.651742 -57.013258 -283.471276 183.668618 
5.647898 21.665591 -9.283928 5.619661 15.141897 -29.026778 4.891166 -16.647369 -34.728320 -56.874015 -266.310677 196.662868 
5.764695 21.953665 -9.873639 5.671803 13.531648 -29.870890 3.664257 -21.796507 -30.661004 -56.230755 -248.472222 206.434461 
5.878824 22.203847 -10.476547 5.667857 11.851432 -30.382674 2.640496 -26.570160 -26.383624 -55.205625 -230.654257 213.341669 
5.990620 22.428418 -11.086453 5.461180 10.338098 -30.583321 1.512885 -30.847323 -22.047414 -53.896373 -213.403153 217.896127 
6.098574 22.620192 -11.698047 5.229422 8.854793 -30.537430 0.504437 -34.939718 -17.530466 -52.383399 -196.986490 220.358670 
6.202966 22.784319 -12.306010 5.100290 7.466585 -30.198588 -0.502449 -38.687587 -13.096626 -50.787530 -181.676810 221.321076 
6.306035 22.924478 -12.903299 4.939841 6.388727 -29.491197 -1.530443 -42.155859 -8.608532 -49.133243 -167.431627 221.047430 
6.400460 23.040319 -13.485284 4.659349 5.343017 -28.679533 -2.507219 -45.386592 -4.183472 -47.477843 -154.270337 219.827470 
6.496740 23.141246 -14.050846 4.425587 4.551830 -27.852254 -3.375722 -48.208792 0.178897 -45.786984 -141.975015 217.877783 
6.583592 23.224600 -14.597701 4.135646 3.724369 -26.877568 -4.274581 -50.921498 4.525987 -44.181717 -130.701468 215.342044 
6.665506 23.293652 -15.126806 3.945180 2.999310 -25.988419 -5.131879 -53.300197 8.819792 -42.570522 -120.203422 212.318390 
6.744639 23.351554 -15.637281 3.783409 2.483890 -25.048867 -6.037355 -55.632632 12.913768 -41.084892 -110.582487 209.014439 
6.817558 23.397820 -16.128796 3.457449 2.164059 -24.111580 -6.829957 -57.724658 17.061619 -39.550752 -101.676166 205.444248 
6.886398 23.440627 -16.601439 3.136982 1.703973 -23.130830 -7.596640 -59.679049 21.097386 -38.105621 -93.423510 201.716793 
6.951256 23.470827 -17.054159 2.978662 1.289118 -22.149813 -8.301152 -61.472543 25.021392 -36.700647 -85.759186 197.867180 
7.013018 23.498816 -17.488090 2.874649 1.046799 -21.206284 -9.024234 -63.148461 28.929401 -35.348999 -78.682610 193.962708 
7.070279 23.519103 -17.903396 2.828785 0.904616 -20.339785 -9.763603 -64.562326 32.702647 -34.044508 -72.010314 189.973239 
7.132165 23.539130 -18.301582 2.770610 0.938911 -19.508169 -10.390743 -65.877081 36.481146 -32.808539 -65.816637 185.999436 
7.187413 23.560418 -18.683174 2.526235 0.794198 -18.600224 -11.007212 -67.110690 40.054449 -31.609511 -59.998425 182.044330 
7.238146 23.577661 -19.046987 2.421337 0.700428 -17.809358 -11.632750 -68.372621 43.608049 -30.458413 -54.576347 178.141202 
7.289786 23.595237 -19.395224 2.127273 0.586107 -17.012034 -12.265054 -69.482541 47.092870 -29.354824 -49.483830 174.272819 
7.332036 23.608286 -19.728013 2.062971 0.312380 -16.247405 -12.834879 -70.320853 50.567970 -28.270325 -44.648408 170.459445 
7.379745 23.616707 -20.045882 2.096447 0.229476 -15.571405 -13.345007 -71.151679 53.857365 -27.224778 -40.092702 166.675977 
7.424793 23.622234 -20.351282 1.929254 0.130767 -14.988518 -13.888542 -71.946250 57.130961 -26.216084 -35.782524 162.955852 
7.464749 23.624141 -20.646559 1.772608 -0.014430 -14.550795 -14.443559 -72.627275 60.340251 -25.238211 -31.681699 159.313064 
7.504443 23.621803 -20.932103 1.698206 -0.140041 -13.980128 -14.924251 -73.223054 63.484720 -24.298513 -27.807533 155.729952 
7.540862 23.621322 -21.205762 1.651635 -0.265361 -13.352070 -15.391829 -73.714338 66.505337 -23.380879 -24.102112 152.189818 
7.580568 23.615729 -21.466897 1.577430 -0.323941 -12.779387 -15.822817 -74.289095 69.471279 -22.504086 -20.593823 148.725605 
7.612440 23.607550 -21.716470 1.441876 -0.410179 -12.181709 -16.239189 -74.646094 72.409230 -21.660154 -17.229924 145.306395 
7.643823 23.598870 -21.954708 1.299330 -0.496707 -11.658636 -16.706304 -74.882740 75.226990 -20.826251 -14.002804 141.926119 
7.670267 23.588968 -22.183349 1.203695 -0.564488 -11.210554 -17.102436 -75.091714 78.020754 -20.026563 -10.937445 138.613801 
7.697601 23.578375 -22.403777 1.069999 -0.570181 -10.822389 -17.497907 -75.455186 80.737411 -19.253665 -7.997147 135.351701 
7.721914 23.563202 -22.617636 1.041905 -0.695209 -10.577438 -17.818130 -75.534138 83.374678 -18.493459 -5.158208 132.140709 
7.741200 23.548884 -22.825358 1.011996 -0.750258 -10.240340 -18.216863 -75.664327 85.992854 -17.752202 -2.433950 128.999769 
7.763261 23.533789 -23.027362 0.953475 -0.674207 -9.924185 -18.553421 -75.664239 88.515577 -17.032968 0.196816 125.891278 
7.784923 23.519479 -23.222525 0.953850 -0.714336 -9.633145 -18.961096 -75.645490 90.967102 -16.324264 2.729371 122.846668 
7.806174 23.502620 -23.412919 1.005470 -0.680436 -9.402669 -19.239963 -75.620360 93.326158 -15.633019 5.180192 119.845533 
7.824279 23.491305 -23.597932 0.911256 -0.663761 -9.073344 -19.408640 -75.508621 95.734957 -14.962628 7.532212 116.873823 
7.846300 23.475629 -23.776441 0.942772 -0.564523 -8.783365 -19.833526 -75.316312 98.039775 -14.302962 9.803071 113.939395 
7.862205 23.463276 -23.949018 0.950128 -0.644783 -8.494097 -20.048996 -75.053969 100.350031 -13.653575 11.990893 111.035505 
7.881340 23.451191 -24.118069 1.002210 -0.586324 -8.449016 -20.316912 -74.862538 102.420491 -13.024496 14.140136 108.159349 
7.902190 23.443270 -24.285956 0.913939 -0.486340 -8.322543 -20.693183 -74.622855 104.542679 -12.413107 16.213395 105.318039 
7.920408 23.433842 -24.452491 0.886004 -0.391103 -8.282653 -20.855377 -74.260887 106.577074 -11.814901 18.223511 102.509503 
7.938434 23.429778 -24.616478 0.758016 -0.218955 -8.119440 -21.096311 -73.867408 108.634036 -11.224588 20.162604 99.731087 
7.948927 23.422240 -24.777311 0.752335 -0.279321 -7.956608 -21.262610 -73.451971 110.636667 -10.642365 22.054072 96.973394 
7.964514 23.416164 -24.934703 0.789728 -0.368370 -7.767035 -21.478542 -72.997752 112.492473 -10.075379 23.894713 94.241021 
7.978362 23.411372 -25.086697 0.791932 -0.334064 -7.428524 -21.732146 -72.524926 114.331036 -9.509960 25.683063 91.541610 
7.996521 23.408274 -25.231467 0.718187 -0.196496 -7.024587 -21.889210 -71.945607 116.178185 -8.952196 27.415651 88.853490 
8.007994 23.407142 -25.368252 0.655529 -0.190315 -6.670932 -22.060010 -71.484149 117.951089 -8.405309 29.103040 86.173968 
8.019887 23.402554 -25.498387 0.615971 -0.147965 -6.346003 -22.180691 -70.821985 119.556745 -7.874840 30.751075 83.527356 
8.032805 23.406040 -25.622768 0.516033 -0.125262 -6.072310 -22.375711 -70.247351 121.236046 -7.344252 32.360205 80.892314 
8.042480 23.403941 -25.742168 0.561373 -0.124348 -5.923547 -22.530007 -69.604387 122.805414 -6.820052 33.922743 78.284936 
8.053525 23.404873 -25.860602 0.535483 -0.092135 -5.918822 -22.664010 -68.864037 124.360122 -6.292901 35.448143 75.694490 
8.064556 23.405687 -25.979106 0.531084 -0.000072 -5.930203 -22.768603 -68.237540 125.823166 -5.764506 36.941627 73.107290 
8.074370 23.410696 -26.098135 0.407163 -0.005937 -5.955648 -22.834914 -67.434330 127.247412 -5.234441 38.391807 70.546958 
8.083932 23.410024 -26.217046 0.410491 -0.070705 -5.900080 -22.970941 -66.631424 128.683464 -4.724903 39.811231 68.005895 
8.094588 23.412518 -26.334341 0.525723 -0.108988 -5.843390 -23.086330 -65.784681 129.981014 -4.218513 41.200352 65.482040 
8.104631 23.414770 -26.449816 0.564313 0.022971 -5.709216 -23.169494 -64.981029 131.255107 -3.724110 42.567581 62.961235 
8.116987 23.418589 -26.563443 0.462128 0.020140 -5.621713 -23.212088 -64.113751 132.469714 -3.246913 43.909919 60.460521 
8.129615 23.419602 -26.674294 0.463666 -0.001566 -5.446280 -23.305392 -63.239058 133.702224 -2.770411 45.220388 57.967840 
7.901326 23.604434 -26.781141 -2.394885 -3.804272 -5.142611 -23.299103 -62.289679 134.835686 -2.288685 46.498289 55.480398 
