# MW x(kpc), MW y(kpc), MW z(kpc), MW vx(km/s), MW vy(km/s), MW vz(km/s) LMC x(kpc), LMC y(kpc), LMC z(kpc), LMC vx(km/s), LMC vy(km/s), LMC vz(km/s) 
-4.394495 2.050076 1.557547 -1.393459 3.003086 1.571048 24.996168 299.992951 88.601256 5.889801 -36.668957 -68.665758 
-4.498276 2.139466 1.590189 -4.928279 -0.115729 1.677707 25.125179 299.248553 87.207969 5.247579 -36.604250 -67.539576 
-4.530428 2.164929 1.623222 -3.264354 2.510809 1.862615 25.238763 298.481642 85.828662 5.919603 -36.930992 -68.454659 
-4.556420 2.218890 1.667596 -2.655404 5.004317 1.980687 25.388435 297.715827 84.424894 3.097573 -36.367915 -71.292988 
-4.641823 2.269801 1.714020 -2.721378 4.146374 2.143599 25.484299 296.885971 83.079940 5.111142 -35.940713 -65.802368 
-4.749171 2.363343 1.756590 -5.259023 0.800268 1.897782 25.557843 296.060213 81.654217 5.752368 -37.087265 -66.901363 
-4.795453 2.414028 1.796036 -5.090640 3.272902 2.023176 25.708858 295.170867 80.213488 2.866338 -38.325928 -71.718885 
-4.880878 2.427330 1.835229 -2.336910 1.759890 1.790545 25.796064 294.308227 78.806019 -0.040146 -41.417222 -73.787499 
-4.946061 2.511220 1.886389 -4.338681 3.056753 1.906896 25.899426 293.401437 77.404092 -0.939101 -42.101161 -74.476941 
-5.019318 2.548180 1.922083 -2.424567 2.803847 2.518139 26.026609 292.435690 75.994409 9.943151 -35.534333 -70.106944 
-5.072405 2.610735 1.972673 -2.245083 3.147965 2.222827 26.093234 291.513398 74.578060 9.384147 -34.815178 -70.840479 
-5.134684 2.706544 2.015859 -5.083550 2.837377 2.513961 26.158709 290.553147 73.140234 9.524392 -45.448475 -64.671928 
-5.222748 2.756953 2.070341 -4.243835 1.703528 2.498011 26.291014 289.599625 71.746227 10.080724 -34.468197 -71.170145 
-5.277628 2.821500 2.122690 -3.962863 2.820000 2.566770 26.425618 288.594800 70.315436 3.722464 -36.353128 -66.591764 
-5.327642 2.912108 2.169545 -5.473914 4.426272 2.454154 26.514971 287.524810 68.885596 9.663643 -35.144024 -69.705618 
-5.424086 2.973352 2.220616 -4.827377 3.541266 2.756962 26.579233 286.510523 67.427695 7.520319 -50.531647 -71.604637 
-5.548957 3.017034 2.268017 -2.710888 -0.423467 2.395976 26.654233 285.412832 65.906354 11.182698 -34.253140 -70.662889 
-5.555596 3.098493 2.320189 -2.675012 3.266364 2.421647 26.743026 284.303472 64.480066 7.703796 -56.201135 -71.752466 
-5.602562 3.169457 2.370338 -2.129033 5.409087 2.188688 26.833209 283.158258 63.049401 18.740709 -46.067586 -56.372393 
-5.661317 3.241517 2.421983 -2.174446 6.580724 2.719370 26.956043 282.004043 61.540306 3.869589 -38.027225 -67.835020 
-5.768958 3.332291 2.467466 -2.276764 2.820737 2.291568 26.978274 280.796008 60.056774 6.152153 -60.439201 -78.752209 
-5.830881 3.435604 2.525754 -4.770428 4.188054 2.900099 27.064388 279.638692 58.578755 -7.858755 -37.843507 -65.168635 
-5.921417 3.542113 2.576607 -6.812505 3.175439 2.778531 27.094886 278.403926 57.112022 4.749924 -60.643937 -71.607779 
-5.965106 3.600311 2.631850 -3.875676 4.816585 2.946527 27.242027 277.113791 55.642970 -0.232384 -34.288506 -62.932909 
-6.072503 3.728388 2.695280 -5.959114 2.391008 3.490195 27.284350 275.781607 54.145945 0.613591 -64.930159 -70.858125 
-6.106693 3.790982 2.755676 -4.676962 6.345322 2.955557 27.349187 274.455920 52.615915 14.223536 -32.670760 -71.809974 
-6.169003 3.888559 2.808319 -4.159285 6.740843 3.011215 27.405884 273.066626 51.103162 15.222389 -31.895504 -73.771840 
-6.276943 4.003166 2.878647 -5.750644 3.791038 2.960383 27.385346 271.650598 49.570199 13.109653 -41.727692 -60.298538 
-6.355922 4.051102 2.947450 -2.334595 3.301880 3.660754 27.397118 270.289828 48.062811 15.905191 -31.474126 -74.181335 
-6.445293 4.150355 3.017245 -2.137354 1.183412 3.456972 27.445395 268.871312 46.535664 1.981491 -31.495817 -64.298768 
-6.459704 4.250319 3.087793 -0.821684 6.023100 3.342882 27.523659 267.406771 44.987118 18.893933 -43.806780 -60.194484 
-6.550415 4.386554 3.154349 -2.861684 5.361577 3.741596 27.538084 265.905445 43.413805 1.965165 -40.844563 -71.598018 
-6.611231 4.499817 3.220197 -2.411344 6.586689 2.980517 27.563878 264.338101 41.888135 17.440367 -30.696455 -74.844368 
-6.685333 4.642949 3.293152 -4.496857 5.097377 3.860336 27.579062 262.821716 40.375998 20.322144 -44.623267 -59.396767 
-6.799777 4.712345 3.367542 -0.591667 1.856638 3.800311 27.630529 261.236301 38.791873 -13.195940 -87.779224 -73.436126 
-6.827440 4.884304 3.436153 -4.279748 6.263732 3.620695 27.671552 259.639430 37.246791 0.133843 -38.126801 -61.881786 
-6.878426 4.989221 3.512136 -2.306109 7.635325 3.655528 27.700409 257.948007 35.649514 15.914078 -32.179361 -71.480223 
-6.932535 5.124005 3.583301 -2.247082 8.822347 3.649627 27.680643 256.255288 34.062468 -0.228693 -34.594381 -68.018916 
-7.026319 5.255619 3.648987 -2.440416 6.777452 3.433616 27.748762 254.510707 32.489140 -0.225617 -39.287242 -72.372405 
-7.103843 5.414983 3.723313 -4.784748 6.016549 3.658588 27.736249 252.789988 30.986478 19.369500 -28.831814 -77.321140 
-7.124668 5.567534 3.797238 -5.831789 9.958677 3.484875 27.710059 251.044385 29.384502 5.426783 -98.280999 -75.071585 
-7.231112 5.691893 3.873915 -5.149309 7.048879 4.027911 27.728839 249.260162 27.814289 11.528938 -40.581390 -62.142294 
-7.297812 5.801810 3.953868 -2.962358 8.232827 3.483191 27.732734 247.365050 26.212671 -5.162104 -40.888845 -75.294262 
-7.380126 5.930165 4.019218 -2.238688 7.719300 3.871529 27.692787 245.503180 24.548945 -7.612417 -44.075561 -76.545919 
-7.475266 6.097739 4.093505 -4.248963 6.206595 3.521426 27.667572 243.547776 22.985290 -20.661401 -112.390094 -137.001919 
-7.480991 6.207627 4.169892 -1.275885 10.697090 3.757553 27.644807 241.583291 21.410293 -13.461796 -34.128134 -60.472811 
-7.581006 6.386439 4.243864 -3.209016 8.606110 3.995321 27.634830 239.586529 19.843518 -7.521454 -49.032636 -78.569586 
-7.663842 6.521775 4.320609 -2.025439 7.328821 3.615376 27.590676 237.568189 18.225023 -4.255085 -93.713007 -76.390920 
-7.699035 6.715556 4.399850 -3.913204 9.601562 3.958446 27.478048 235.484674 16.627020 9.955556 -41.278438 -58.634882 
-7.772745 6.864820 4.484460 -3.436079 9.316547 4.465482 27.412859 233.422432 15.017119 -10.010215 -61.840866 -83.669029 
-7.868809 7.063465 4.575520 -4.422521 7.153485 4.291677 27.408033 231.250907 13.427214 -14.320838 -35.506544 -58.210980 
-7.952284 7.188069 4.662442 -2.651165 6.411315 4.601367 27.370324 229.057381 11.836065 -15.644287 -64.426055 -84.708310 
-7.966835 7.410816 4.751440 -6.814216 9.788246 4.678184 27.304170 226.824000 10.232780 -83.932588 -161.384874 -49.864058 
-8.059963 7.547421 4.846511 -3.998884 8.841595 4.884417 27.154412 224.566581 8.606193 -34.019405 -79.130371 -97.670327 
-8.124865 7.713135 4.939281 -3.170512 8.409339 4.312592 27.080663 222.218054 7.006905 -2.496497 -115.475429 -84.396382 
-8.199707 7.900734 5.028025 -3.133597 8.101380 4.430419 26.978857 219.832075 5.447767 -13.654941 -38.161341 -72.044683 
-8.245869 8.086357 5.114315 -3.360489 9.785355 4.731864 26.906108 217.410129 3.840278 -27.599659 -34.258425 -75.346213 
-8.315870 8.273242 5.209559 -2.747942 10.611585 4.980557 26.749580 214.947943 2.235153 10.867090 -42.225350 -56.412519 
-8.384805 8.465727 5.302843 -1.673589 10.390850 4.545772 26.602916 212.466447 0.688161 1.501228 -43.948057 -70.491879 
-8.437168 8.683084 5.397563 -3.329442 12.411733 4.800172 26.492971 209.946371 -0.904482 -17.739929 -26.033584 -58.438128 
-8.569263 8.882531 5.497187 -3.261788 8.064953 5.099493 26.389046 207.385097 -2.518063 16.319766 -47.506029 -48.585758 
-8.610575 9.078057 5.597866 -2.489680 9.895581 4.561214 26.253870 204.735473 -4.116124 -68.411695 -101.416388 -24.424060 
-8.677484 9.272580 5.692491 -2.490623 9.683673 4.967684 26.093616 202.073048 -5.762344 -15.006376 -60.527632 -42.091648 
-8.778384 9.496844 5.779035 -3.131638 7.655245 4.571887 25.933533 199.317375 -7.318174 28.129750 -49.576955 -50.167244 
-8.805479 9.725292 5.873566 -3.964494 11.204080 4.607704 25.795868 196.546126 -8.869845 -2.756258 -44.262806 -74.231508 
-8.853203 9.956935 5.965032 -4.522179 11.683999 4.705593 25.566430 193.724335 -10.496280 -3.803834 -41.803319 -73.879395 
-8.916147 10.190878 6.057223 -3.790647 11.332741 4.530421 25.357533 190.822991 -12.031262 -15.130291 -48.244636 -80.771890 
-9.008773 10.422218 6.146964 -4.186636 10.049926 4.759699 25.178192 187.824163 -13.619778 -0.125511 -98.579000 -29.646389 
-9.086659 10.618600 6.240227 -1.307854 8.364511 4.149518 24.948085 184.808925 -15.160599 -11.752179 -151.999977 -79.039294 
-9.103539 10.876009 6.319414 -2.419354 12.722049 3.992182 24.728018 181.710961 -16.690918 -16.513366 -71.198996 -89.619713 
-9.156681 11.165627 6.398037 -5.596596 12.335815 4.034534 24.474901 178.588761 -18.210732 -55.513576 -75.347221 -1.856597 
-9.222549 11.386350 6.481885 -3.092076 12.711843 3.796501 24.228177 175.345449 -19.732240 -16.224736 -136.889791 18.028258 
-9.259247 11.637447 6.567439 -2.140176 14.514475 3.894089 23.944443 172.103892 -21.286863 -44.156500 -84.162428 -101.829134 
-9.353727 11.939900 6.642462 -5.089324 12.046143 3.734985 23.676126 168.820150 -22.796830 -58.377711 -85.263618 -120.198807 
-9.371269 12.195907 6.726284 -4.273796 14.371668 3.804777 23.364923 165.400786 -24.330410 -24.682477 -77.475213 -91.125172 
-9.417300 12.453606 6.795475 -2.080655 15.236546 3.924556 23.077099 161.866629 -25.762749 -38.407057 -77.699901 -99.178969 
-9.474511 12.747061 6.879497 -3.724394 15.323431 3.939636 22.733905 158.334018 -27.157099 74.985123 -56.241853 12.695520 
-9.532385 13.009413 6.947733 -1.783369 14.046972 3.370932 22.380607 154.747091 -28.641364 4.124796 -110.606453 -30.150291 
-9.577458 13.311068 7.022821 -1.827839 16.055121 3.673697 22.039163 151.033993 -30.066430 -27.593553 -292.492119 -55.339454 
-9.640942 13.627453 7.093854 -3.429585 15.358766 3.364603 21.614041 147.291182 -31.455036 -51.763637 -267.303997 -56.399643 
-9.698010 13.911935 7.155590 -1.428954 15.734537 2.908217 21.209154 143.369743 -32.807575 -20.880538 -235.077098 28.047136 
-9.746574 14.217115 7.232428 -0.880109 16.589484 3.452646 20.730019 139.471473 -34.087007 21.396093 -229.747446 -30.810028 
-9.796534 14.554528 7.297453 -1.707455 16.865664 3.246766 20.207090 135.460162 -35.402481 -6.266150 -52.123090 4.711740 
-9.839361 14.869861 7.356878 -0.006960 17.077879 3.044468 19.765245 131.297631 -36.682720 31.780710 -22.672985 -76.343072 
-9.911792 15.222738 7.420733 -1.940123 15.852704 2.790944 19.265996 126.953391 -37.876619 -6.679100 -43.708726 -74.413529 
-9.935712 15.559631 7.480642 -1.204536 17.291231 2.742918 18.728706 122.669485 -39.058895 -49.802583 -231.972394 -59.471044 
-9.963197 15.923267 7.525402 -1.444714 16.958484 2.675602 18.163153 118.252799 -40.242953 -27.690374 -85.598063 -94.597014 
-10.013805 16.292689 7.585369 -1.940535 16.295078 2.516727 17.530389 113.753518 -41.286743 -17.016542 -44.123198 -81.466198 
-10.028470 16.657647 7.620978 -1.793629 17.789865 1.975878 16.984881 109.062413 -42.306261 -22.274497 -51.835249 -84.749237 
-10.060521 17.027932 7.655047 -2.446044 18.407765 1.293119 16.305544 104.235942 -43.276376 56.550770 -73.655947 -15.312669 
-10.084503 17.401945 7.682672 -2.360074 18.874797 1.095579 15.580187 99.280568 -44.121562 -19.798738 -76.727499 -92.394736 
-10.135345 17.747939 7.702289 -0.437420 17.565375 0.914696 14.860813 94.283377 -44.946270 -37.180070 -85.633179 -101.183435 
-10.143292 18.172204 7.710555 -1.910982 19.423729 0.085329 14.088600 89.127502 -45.617851 18.341286 -187.859694 41.397805 
-10.147894 18.539444 7.703157 0.390946 20.044413 -0.661584 13.264088 83.825954 -46.161365 -43.722685 -268.653469 -26.267194 
-10.162839 18.938753 7.694693 1.723876 20.644847 -0.835152 12.386778 78.408107 -46.605033 -43.323511 -305.581366 -26.452173 
-10.154355 19.369718 7.664309 1.766209 22.227105 -1.864999 11.371026 72.793689 -46.917606 -24.580273 -50.873507 -85.938247 
-10.154412 19.823659 7.619600 0.350901 22.335780 -2.065982 10.451298 67.114621 -47.108973 -5.698082 -68.649731 -78.733739 
-10.175999 20.275240 7.554054 0.504165 21.337881 -3.535301 9.378586 61.176296 -47.037601 -8.652551 -44.631576 -75.091757 
-10.167097 20.722606 7.463697 1.510747 22.228919 -5.024446 8.232446 55.145693 -46.825457 -72.432226 -116.019035 -123.746862 
-10.138285 21.196193 7.351205 1.886693 24.578886 -5.741884 7.038495 49.008632 -46.366785 -106.315775 -39.407163 -149.772596 
-10.127700 21.672689 7.221156 1.564284 23.825379 -7.193308 5.694911 42.770182 -45.584753 -25.042735 -58.940629 -88.172758 
-10.098542 22.157275 7.053321 2.301630 25.587441 -8.848926 4.256114 36.355254 -44.576265 -23.211044 -80.466934 -93.351212 
-10.085671 22.612724 6.854588 4.021450 22.686507 -10.842769 2.814163 29.948991 -43.090157 17.724312 -52.846888 -38.085165 
-10.046835 23.133760 6.616189 2.660421 23.258413 -12.896707 1.219809 23.405751 -41.388633 -64.532527 -106.566208 -116.176829 
-9.987796 23.631647 6.327578 1.740708 23.968670 -15.092614 -0.480069 17.000405 -39.141673 -86.769783 -269.022360 111.712022 
-9.923124 24.075365 6.003380 6.197524 23.214787 -17.066953 -2.316411 10.534304 -36.540415 -58.759932 -188.892056 157.952461 
-9.842653 24.573160 5.644382 2.472198 22.617142 -19.205326 -4.156693 4.267198 -33.432313 36.472964 -57.419146 -35.600330 
-9.772901 24.989409 5.232982 4.357020 21.789574 -21.073268 -6.094936 -1.767802 -29.927295 94.319968 -79.669317 34.141215 
-9.705067 25.404827 4.789109 3.162872 18.853946 -23.029015 -8.026923 -7.485489 -26.026606 -25.282268 -74.190056 -92.035771 
-9.642555 25.772366 4.322408 3.751968 16.155676 -23.905300 -9.980469 -12.829625 -21.843273 -25.442316 -85.342375 -97.231794 
-9.588554 26.098655 3.833525 4.673531 13.995962 -24.876004 -11.890342 -17.779297 -17.300926 -67.597940 -271.146243 134.982893 
-9.528606 26.406942 3.329966 2.058854 12.483055 -25.443036 -13.758900 -22.341362 -12.650498 -86.090478 -296.085784 152.039116 
-9.434311 26.640923 2.839330 4.687522 11.813154 -24.696794 -15.653290 -26.457230 -7.863984 41.546586 -8.884539 -114.174595 
-9.347327 26.913651 2.347454 2.397132 11.110143 -24.192214 -17.531955 -30.246167 -2.991254 -11.261380 -46.124964 -75.337937 
-9.296289 27.106232 1.852403 1.428967 8.534760 -24.115724 -19.387231 -33.705484 1.870603 -16.372513 -318.203486 58.158115 
-9.211185 27.255824 1.382802 2.460755 9.022372 -23.369154 -21.115822 -36.877850 6.720936 -88.804915 -126.976762 -133.468180 
-9.205319 27.415211 0.931216 2.034125 5.547991 -22.328366 -22.777585 -39.629037 11.576048 -73.490119 -67.398945 -28.619904 
-9.136794 27.542374 0.494809 1.255769 6.155048 -20.845785 -24.387924 -42.190787 16.343818 -96.394234 -75.472458 31.743415 
-9.132440 27.607759 0.082552 2.834707 4.236096 -20.105700 -25.947665 -44.442110 21.023991 -81.683451 -217.940389 160.459869 
-9.099820 27.728931 -0.308647 0.651699 4.596897 -18.815320 -27.501473 -46.525543 25.637389 -73.432935 -171.714463 116.862255 
-9.083520 27.799878 -0.683179 0.009190 4.268196 -18.087703 -28.902350 -48.468140 30.159753 -12.872732 -43.087571 -79.685666 
-9.066443 27.863044 -1.025526 0.226979 4.177484 -16.872999 -30.360074 -50.107066 34.672625 -59.218896 -257.506492 152.278138 
-9.083999 27.948985 -1.353688 -2.166901 3.225141 -15.775068 -31.678697 -51.576807 38.971115 -82.578292 -131.150530 -134.632434 
-9.103148 28.011013 -1.652765 -1.615829 2.059664 -14.446327 -32.979050 -52.879043 43.188056 -37.576482 -39.981850 -36.179291 
-9.136892 28.035060 -1.949131 -0.806499 0.974061 -14.507258 -34.179326 -54.024807 47.345735 45.157850 -63.624176 -29.948932 
-9.140080 28.065598 -2.220784 0.249609 2.521334 -13.203212 -35.471175 -55.123886 51.430564 -66.317931 -224.501510 93.370255 
-9.132282 28.106152 -2.474310 0.400501 3.796738 -12.580328 -36.622873 -56.044776 55.357633 -31.369673 -214.600681 45.715974 
-9.139217 28.185677 -2.708558 -1.397141 4.711648 -10.976674 -37.769618 -56.833775 59.179367 -1.484640 -251.426354 66.671290 
-9.214982 28.270396 -2.922408 -3.854430 1.670147 -10.326767 -38.848026 -57.500075 62.966046 53.613992 3.058987 -140.600545 
-9.241596 28.325397 -3.119351 -4.325683 2.158814 -9.926438 -39.876311 -58.112942 66.673772 -22.862663 -45.697032 -82.706113 
-9.311401 28.360986 -3.315443 -3.682340 -0.556270 -9.381787 -40.883074 -58.589452 70.278393 -23.394742 -45.814222 -82.732335 
-9.358797 28.332552 -3.501624 0.048355 -0.077562 -9.353759 -41.865021 -58.983189 73.798061 -73.761839 -109.850455 -123.691612 
-9.405175 28.375797 -3.670368 0.217806 -0.004518 -8.506692 -42.786895 -59.361172 77.193258 -56.765520 -205.628804 125.246812 
-9.407365 28.409394 -3.828500 -1.159100 2.534080 -8.279087 -43.648758 -59.617054 80.498249 -29.894181 -47.153851 -86.493781 
-9.438582 28.459257 -3.984919 -1.329895 4.094938 -7.546604 -44.533654 -59.824602 83.736281 -98.977183 -8.100370 41.379295 
-9.495912 28.522209 -4.129143 -3.719161 4.165830 -7.331825 -45.447815 -59.900182 86.883214 46.294738 3.436861 -133.816805 
-9.585744 28.579030 -4.265075 -4.359674 2.994274 -6.479540 -46.295139 -59.900664 90.039493 -30.861595 -47.592914 -87.360727 
-9.685961 28.636767 -4.381272 -6.051295 0.424529 -5.778743 -47.112344 -59.822297 93.042449 -48.661285 -114.753705 -109.546481 
-9.808157 28.652697 -4.494213 -4.332394 -1.899603 -5.524839 -47.775565 -59.700652 95.972266 -45.157059 -55.701408 -32.475585 
-9.896891 28.633883 -4.591642 -0.839916 -2.316931 -4.905976 -48.516217 -59.550801 98.831018 -17.711050 -43.278647 -82.075193 
-9.888141 28.622935 -4.685544 -0.027191 2.989008 -5.059668 -49.203767 -59.372194 101.615840 -21.350703 -44.334790 -82.789099 
-9.943732 28.669698 -4.780185 -1.130087 4.566798 -4.643454 -49.996074 -59.108138 104.307825 -40.421881 -66.950631 -97.304049 
-9.979617 28.761537 -4.867036 -4.767485 6.637627 -5.054155 -50.679912 -58.815096 106.974319 80.825200 -79.416057 -19.335837 
-10.083459 28.863016 -4.943583 -8.400240 4.230014 -4.005247 -51.257734 -58.443288 109.499102 -5.073038 -27.641225 -59.964858 
-10.196259 28.899838 -5.015658 -8.180306 4.039013 -3.987620 -51.848328 -58.005809 112.006919 53.029259 -9.844964 -83.120905 
-10.362225 28.939247 -5.093325 -7.818062 -0.785967 -3.365488 -52.419623 -57.581960 114.444988 33.782216 -61.149404 -20.557270 
-10.459479 28.910322 -5.156263 -5.079559 -1.236399 -3.103235 -53.057473 -57.030543 116.774643 11.281092 30.724846 -19.533855 
-10.509384 28.880917 -5.216231 -1.514430 1.038331 -3.171748 -53.600315 -56.510671 119.087030 -10.488176 -48.847889 -54.778102 
-10.553523 28.904319 -5.274756 -2.204557 4.030879 -2.837739 -54.105302 -55.917794 121.342148 -33.712203 -111.106418 -62.613199 
-10.593519 28.954084 -5.320002 -3.162994 4.858624 -2.405377 -54.595701 -55.378994 123.564056 53.775709 -69.681194 -22.127830 
-11.823280 26.162824 -5.398354 119.684300 -107.105864 2.364149 -55.089131 -54.656414 125.599585 24.029695 -50.430642 -32.208688 
