# MW x(kpc), MW y(kpc), MW z(kpc), MW vx(km/s), MW vy(km/s), MW vz(km/s) LMC x(kpc), LMC y(kpc), LMC z(kpc), LMC vx(km/s), LMC vy(km/s), LMC vz(km/s) 
1.058938 2.252329 -0.066267 0.738544 2.089928 0.043238 28.224432 308.139602 89.972227 7.394413 -34.777551 -69.993051 
1.076214 2.294421 -0.064394 0.833719 2.184278 0.128598 28.363413 307.422249 88.554566 7.306441 -35.780196 -70.301909 
1.095439 2.338820 -0.061152 0.878847 2.423491 0.208732 28.498872 306.725745 87.191431 7.190922 -36.802908 -70.596411 
1.114890 2.388766 -0.055679 0.769995 2.475365 0.312281 28.641043 305.956030 85.727652 7.080934 -37.837220 -70.895229 
1.138958 2.438615 -0.048334 0.895799 2.527603 0.419522 28.763499 305.226193 84.320336 6.985975 -38.887382 -71.201374 
1.158921 2.486894 -0.039127 1.087628 2.738534 0.535878 28.947374 304.426264 82.910394 6.860694 -39.929209 -71.490352 
1.182981 2.539339 -0.027891 1.075422 2.817354 0.591695 29.072229 303.589054 81.465366 6.754127 -40.985466 -71.772959 
1.204797 2.594875 -0.015744 1.218290 2.857891 0.623027 29.211159 302.796168 80.052140 6.638297 -42.053198 -72.060829 
1.232786 2.655914 -0.002362 1.142724 2.932906 0.675570 29.286650 301.917422 78.604226 6.521056 -43.116106 -72.348694 
1.260953 2.709492 0.011254 1.261671 3.012954 0.714536 29.454200 301.040335 77.198148 6.392188 -44.201265 -72.630141 
1.288997 2.770270 0.025107 1.282870 3.149726 0.679710 29.558279 300.150288 75.715593 6.272196 -45.281492 -72.910806 
1.314031 2.832572 0.038524 1.181298 3.195250 0.646596 29.698377 299.264755 74.241342 6.138228 -46.364056 -73.192035 
1.340058 2.898254 0.051828 1.183779 3.276098 0.676454 29.775742 298.293426 72.728001 6.015476 -47.477529 -73.449799 
1.367332 2.962974 0.065830 1.218615 3.438954 0.711882 29.869924 297.327381 71.284970 5.890036 -48.583990 -73.715504 
1.393845 3.032050 0.079960 1.144704 3.498773 0.677448 30.003613 296.366440 69.763273 5.764884 -49.714868 -73.957889 
1.420407 3.098086 0.093170 1.045611 3.547870 0.686212 30.138448 295.346862 68.313508 5.630613 -50.855928 -74.219592 
1.443717 3.165058 0.106581 1.171460 3.692129 0.630441 30.290921 294.394071 66.862467 5.527243 -51.993719 -74.475372 
1.468664 3.244072 0.118102 1.143764 3.940816 0.518420 30.398953 293.305541 65.328181 5.427072 -53.157007 -74.728904 
1.494905 3.321593 0.128147 1.087358 4.018688 0.498111 30.442962 292.208636 63.907911 5.306445 -54.312719 -74.971788 
1.517448 3.397813 0.138094 1.218850 3.961083 0.489673 30.612692 291.081859 62.316046 5.188999 -55.500913 -75.237067 
1.546772 3.478720 0.148058 1.431215 4.177048 0.515653 30.657462 289.951495 60.817521 5.075097 -56.690548 -75.496782 
1.579704 3.562549 0.158168 1.342149 4.430902 0.500959 30.812340 288.809024 59.299190 4.948860 -57.892270 -75.758479 
1.609268 3.645414 0.168225 1.421646 4.375297 0.534335 30.882174 287.694437 57.825186 4.812773 -59.109272 -75.996223 
1.642001 3.734281 0.178819 1.475073 4.513859 0.541259 30.983296 286.519516 56.331647 4.689585 -60.341729 -76.242950 
1.670722 3.822198 0.191183 1.515529 4.523758 0.698430 31.078877 285.311530 54.779742 4.545916 -61.570951 -76.484714 
1.707263 3.915359 0.206705 1.462840 4.744308 0.806970 31.157786 284.014811 53.265055 4.422805 -62.815566 -76.698808 
1.740835 4.007182 0.223439 1.422184 4.941050 0.832147 31.241716 282.779949 51.708606 4.287719 -64.075961 -76.898709 
1.771359 4.106877 0.240977 1.234682 5.024652 0.935301 31.323464 281.378699 50.164728 4.136318 -65.345829 -77.118263 
1.798565 4.200183 0.260774 1.288595 5.032675 1.034338 31.459583 280.151527 48.643171 3.983658 -66.630401 -77.338129 
1.828334 4.298806 0.282379 1.457111 5.131625 1.093383 31.501463 278.762061 47.092980 3.841554 -67.936068 -77.540991 
1.863543 4.397091 0.304588 1.597183 5.363061 1.183488 31.553924 277.432606 45.537179 3.675109 -69.265247 -77.738665 
1.897325 4.501530 0.329174 1.619278 5.533392 1.204599 31.601784 276.039594 43.969737 3.514412 -70.607082 -77.945397 
1.930871 4.606841 0.353286 1.670084 5.711081 1.237198 31.717784 274.574856 42.374468 3.355146 -71.968538 -78.136117 
1.966649 4.720541 0.377843 1.566965 5.804627 1.217543 31.852713 273.140401 40.789438 3.205530 -73.331932 -78.325772 
2.000101 4.831981 0.402245 1.637311 5.806399 1.240126 31.858671 271.634275 39.303815 3.038299 -74.735865 -78.529763 
2.035484 4.942113 0.427333 1.776343 5.914733 1.279653 31.924887 270.141971 37.678615 2.863185 -76.131226 -78.730092 
2.070128 5.056887 0.453785 1.802401 5.972598 1.389100 31.992832 268.597813 36.136132 2.689875 -77.536501 -78.915852 
2.108797 5.175255 0.483167 1.923471 6.205895 1.546710 32.035225 267.005380 34.486342 2.525560 -78.956306 -79.083829 
2.149882 5.295830 0.515610 1.944107 6.410827 1.689417 32.114251 265.382578 32.992951 2.358023 -80.383156 -79.249788 
2.188498 5.415048 0.551069 2.005392 6.498800 1.820677 32.093659 263.861786 31.380623 2.178811 -81.837077 -79.408620 
2.226134 5.543498 0.587124 2.033821 6.557766 1.824505 32.190861 262.289197 29.796847 2.002842 -83.303826 -79.573289 
2.265393 5.675059 0.623576 1.924123 6.652165 1.801195 32.182425 260.576092 28.207653 1.807612 -84.797001 -79.728210 
2.305362 5.804999 0.659174 1.960347 6.713133 1.764253 32.273344 258.782505 26.605269 1.612320 -86.299339 -79.878437 
2.344300 5.935799 0.694048 2.070695 6.818515 1.712963 32.303702 257.001404 24.986885 1.417942 -87.830145 -80.028142 
2.385304 6.071850 0.728766 2.140380 6.966324 1.740559 32.299019 255.216932 23.390738 1.199769 -89.396443 -80.170633 
2.431135 6.208379 0.762113 2.199310 7.189367 1.618230 32.366664 253.478695 21.781718 0.990317 -90.994724 -80.320381 
2.472146 6.351023 0.794331 2.180090 7.312828 1.635578 32.269241 251.661617 20.197829 0.778132 -92.636255 -80.458777 
2.515220 6.494584 0.827608 2.196251 7.442330 1.700225 32.290818 249.761516 18.532816 0.564869 -94.302464 -80.599306 
2.558360 6.642470 0.861508 2.140982 7.512517 1.685571 32.341133 247.929041 16.956906 0.336226 -96.010428 -80.735838 
2.598950 6.792078 0.894738 2.113720 7.564250 1.674540 32.334377 245.902112 15.379501 0.101748 -97.730241 -80.857153 
2.637557 6.942305 0.928113 2.162382 7.704623 1.622635 32.383535 244.039592 13.739342 -0.120081 -99.480253 -80.966332 
2.683660 7.099628 0.960738 2.127468 7.911078 1.646649 32.321712 241.953470 12.128384 -0.353278 -101.264495 -81.069017 
2.724336 7.254621 0.993860 2.177411 7.981969 1.688905 32.300124 239.907458 10.437018 -0.588401 -103.092950 -81.157496 
2.767774 7.413114 1.028584 2.210693 8.142608 1.761496 32.268468 237.902598 8.816012 -0.843720 -104.944653 -81.239650 
2.812973 7.579206 1.064019 2.246888 8.377456 1.775099 32.302723 235.799056 7.272303 -1.102004 -106.834818 -81.291794 
2.856653 7.746870 1.099570 2.270764 8.505877 1.777270 32.332525 233.615603 5.572733 -1.361909 -108.767709 -81.339025 
2.901239 7.918924 1.134292 2.323211 8.662894 1.685656 32.251105 231.328349 3.938694 -1.635127 -110.740223 -81.367124 
2.947835 8.091737 1.167606 2.362562 8.833468 1.680336 32.224681 229.230221 2.309920 -1.903609 -112.758389 -81.371438 
2.996261 8.268290 1.200856 2.443962 8.918019 1.617706 32.152350 226.865568 0.738492 -2.176421 -114.808499 -81.353704 
3.046271 8.450525 1.232357 2.527658 9.091013 1.560174 32.093127 224.492066 -0.946980 -2.472655 -116.890859 -81.307155 
3.097655 8.635654 1.263299 2.510390 9.405917 1.547624 32.091205 222.157125 -2.531385 -2.754279 -119.016167 -81.262837 
3.147522 8.824948 1.294860 2.330398 9.466833 1.581922 32.042125 219.764416 -4.169753 -3.075269 -121.178838 -81.166673 
3.196706 9.011407 1.326691 2.544153 9.547186 1.640814 31.925579 217.483731 -5.858923 -3.378941 -123.388634 -81.062293 
3.249527 9.206055 1.359530 2.607300 9.950983 1.631271 31.862067 214.835795 -7.387737 -3.682849 -125.643078 -80.922119 
3.303903 9.403346 1.391693 2.592510 10.200542 1.568838 31.758246 212.281924 -9.017471 -4.021653 -127.925115 -80.770489 
3.356662 9.609085 1.423527 2.664756 10.343738 1.624389 31.686037 209.682573 -10.590171 -4.367355 -130.267185 -80.595189 
3.411589 9.817861 1.456656 2.774804 10.504667 1.669016 31.596078 207.103535 -12.259249 -4.713918 -132.671307 -80.394309 
3.469029 10.030945 1.489462 2.890929 10.835299 1.606869 31.530079 204.407362 -13.874484 -5.076682 -135.130454 -80.152052 
3.527274 10.250874 1.521055 2.824584 11.121918 1.559785 31.369343 201.670081 -15.464702 -5.452005 -137.643608 -79.886464 
3.586254 10.473467 1.552688 2.801740 11.267458 1.600979 31.300430 198.889630 -16.946678 -5.862785 -140.216453 -79.591144 
3.644580 10.702216 1.584843 2.872187 11.562412 1.615721 31.143752 196.045531 -18.605113 -6.276060 -142.852080 -79.258986 
3.705387 10.933503 1.617111 2.851629 11.892843 1.644998 31.056134 193.173119 -20.195444 -6.699374 -145.551352 -78.886850 
3.759747 11.171027 1.649656 2.821993 11.972377 1.607588 30.929024 190.318030 -21.798411 -7.142309 -148.312314 -78.451461 
3.822587 11.413403 1.681082 2.844860 12.268771 1.536589 30.765712 187.322961 -23.393805 -7.587601 -151.148621 -78.004036 
3.882870 11.658216 1.710551 2.852258 12.397965 1.376086 30.618353 184.223349 -24.868144 -8.053977 -154.054496 -77.520252 
3.944924 11.907282 1.736397 3.006187 12.534595 1.252701 30.446311 181.081678 -26.484772 -8.547507 -157.023793 -76.972377 
4.011248 12.160937 1.760629 3.222227 12.856968 1.150468 30.339130 177.923626 -27.956526 -9.059934 -160.075326 -76.369647 
4.076676 12.417866 1.782935 3.319373 13.113028 1.086354 30.106008 174.717334 -29.524566 -9.584726 -163.204201 -75.698511 
4.149687 12.682618 1.803386 3.341732 13.412049 0.947746 29.865615 171.349840 -30.985379 -10.130823 -166.430976 -74.957872 
4.222018 12.947352 1.821162 3.379300 13.651197 0.865544 29.660219 167.977915 -32.506913 -10.692898 -169.744411 -74.137264 
4.289732 13.218998 1.837405 3.384148 13.788565 0.759947 29.443692 164.590691 -33.910410 -11.270165 -173.161451 -73.265367 
4.362272 13.494266 1.850977 3.473438 14.118838 0.612944 29.184062 161.113798 -35.377494 -11.879091 -176.689263 -72.310436 
4.434582 13.777821 1.862045 3.483371 14.470394 0.474832 28.934819 157.564016 -36.816176 -12.528632 -180.306686 -71.244987 
4.507665 14.065244 1.869804 3.593067 14.733041 0.299997 28.772371 153.937949 -38.194494 -13.197765 -184.065038 -70.086300 
4.585746 14.360594 1.873965 3.673804 15.108953 0.119078 28.492399 150.220109 -39.658517 -13.896812 -187.946068 -68.851655 
4.662081 14.661951 1.873763 3.771060 15.266296 -0.114947 28.162397 146.357671 -40.930857 -14.628225 -191.971262 -67.466334 
4.741175 14.966760 1.869207 4.017902 15.648569 -0.335107 27.800903 142.497917 -42.281643 -15.396294 -196.125173 -65.944230 
4.826738 15.282127 1.860832 4.100017 16.118721 -0.520804 27.489228 138.531779 -43.575618 -16.214179 -200.416281 -64.285616 
4.912096 15.603223 1.848079 4.198880 16.536305 -0.727444 27.160158 134.596106 -44.947134 -17.053517 -204.854421 -62.465834 
4.997235 15.933438 1.830402 4.252751 16.846046 -1.030440 26.842308 130.390895 -46.100176 -17.958545 -209.445808 -60.466894 
5.087557 16.269365 1.807977 4.439590 17.182583 -1.201319 26.534410 126.130967 -47.314415 -18.903625 -214.199848 -58.251470 
5.179865 16.611125 1.781559 4.591691 17.631301 -1.442970 26.093948 121.781517 -48.422830 -19.882331 -219.117474 -55.790293 
5.273553 16.967546 1.750299 4.548268 18.116174 -1.675492 25.666712 117.257280 -49.523123 -20.933781 -224.228136 -53.090706 
5.366572 17.327982 1.715049 4.604334 18.509771 -1.880266 25.262284 112.809859 -50.590918 -22.058997 -229.509308 -50.098155 
5.462428 17.698553 1.673526 4.902119 18.973614 -2.233757 24.794039 108.217807 -51.472464 -23.252145 -234.983338 -46.774189 
5.562498 18.079040 1.626198 5.058455 19.603383 -2.514235 24.347764 103.451994 -52.396812 -24.515099 -240.650674 -43.072505 
5.665411 18.471479 1.572957 5.135807 20.173235 -2.805303 23.786157 98.538617 -53.194835 -25.878883 -246.508300 -38.931877 
5.767735 18.875825 1.513236 5.271842 20.598079 -3.164991 23.270381 93.547576 -53.962685 -27.320969 -252.537444 -34.295866 
5.878453 19.288647 1.446288 5.503398 21.130105 -3.562837 22.699834 88.491940 -54.595733 -28.881078 -258.747642 -29.128642 
5.989566 19.713734 1.370053 5.628800 21.681188 -4.081984 22.151472 83.221598 -55.156104 -30.544389 -265.137433 -23.314084 
6.099878 20.147953 1.281644 5.741907 22.177757 -4.762770 21.532315 77.936313 -55.535482 -32.311000 -271.661517 -16.771498 
6.215931 20.593807 1.178548 5.852102 22.640096 -5.592484 20.789658 72.482668 -55.691692 -34.198498 -278.270494 -9.405650 
6.335887 21.047911 1.057188 6.044015 22.957732 -6.543780 20.162537 66.698457 -55.818994 -36.230370 -284.894371 -1.049472 
6.456987 21.506831 0.914857 6.366189 23.397995 -7.702040 19.403840 60.862392 -55.758067 -38.380594 -291.417420 8.395966 
6.587322 21.975802 0.749289 6.583805 23.957524 -8.891634 18.613099 55.052968 -55.523905 -40.657348 -297.713679 19.056738 
6.717891 22.454680 0.557207 6.760158 24.305029 -10.338909 17.833282 49.034766 -54.960121 -43.072358 -303.543732 31.123706 
6.852502 22.941599 0.335440 6.965431 24.654477 -11.843154 16.881940 42.946803 -54.201550 -45.588946 -308.658223 44.672883 
6.992801 23.436734 0.083302 7.206286 24.972404 -13.397622 15.982853 36.615050 -53.135799 -48.152500 -312.655132 59.818293 
7.133808 23.936263 -0.200798 7.421948 25.050925 -15.006960 15.019530 30.422635 -51.749518 -50.758031 -315.140200 76.475479 
7.284662 24.434181 -0.518001 7.576732 24.948223 -16.724064 13.966609 24.102237 -50.011707 -53.269039 -315.520599 94.512923 
7.435458 24.927387 -0.872026 7.807786 24.481753 -18.764006 12.818369 17.891335 -47.865944 -55.550846 -313.386485 113.544276 
7.593199 25.407742 -1.269434 8.082433 23.690906 -20.993214 11.617716 11.530212 -45.435220 -57.437077 -308.161289 132.890128 
7.755177 25.868262 -1.711933 8.342074 22.647617 -23.192499 10.380948 5.575676 -42.509380 -58.885410 -299.890624 151.879324 
7.923671 26.308551 -2.193833 8.443411 21.432461 -24.950323 9.351589 -0.305754 -39.293667 -59.798213 -288.635816 169.503392 
8.090709 26.722152 -2.709213 8.380716 19.851140 -26.561850 8.121195 -5.981550 -35.645504 -60.019269 -274.808844 185.148839 
8.255846 27.097162 -3.254091 8.425117 18.019730 -27.868624 6.964049 -11.380140 -31.751711 -59.682041 -259.275621 198.172656 
8.423211 27.440321 -3.822053 8.342763 16.257728 -28.858702 5.699273 -16.271536 -27.592308 -58.853974 -242.723571 208.569460 
8.584761 27.746327 -4.405056 8.177292 14.537314 -29.410627 4.538415 -20.892991 -23.288303 -57.617032 -225.879708 216.230578 
8.745385 28.015924 -4.996183 7.920756 12.886353 -29.665445 3.447414 -25.134299 -18.816124 -56.072406 -209.223906 221.533470 
8.898874 28.255784 -5.590112 7.549563 11.185113 -29.716327 2.285563 -29.114382 -14.290428 -54.365526 -193.222931 224.772870 
9.045541 28.463216 -6.183210 7.239370 9.632761 -29.506266 1.264978 -32.828939 -9.687447 -52.492878 -178.038536 226.399393 
9.184686 28.642517 -6.766253 6.926484 8.400699 -28.737867 0.165233 -36.251553 -5.131255 -50.637252 -163.812756 226.714217 
9.316980 28.794974 -7.331071 6.601722 7.262889 -27.704514 -0.814888 -39.316786 -0.615614 -48.719992 -150.474265 226.015454 
9.443574 28.932305 -7.875101 6.248549 6.185972 -26.702380 -1.682595 -42.170413 3.881643 -46.790971 -138.086177 224.417477 
9.563908 29.045284 -8.398417 6.101371 5.302799 -25.600775 -2.620758 -44.725415 8.349103 -44.930863 -126.535319 222.096833 
9.681307 29.145053 -8.898285 5.753604 4.561512 -24.339479 -3.535817 -47.089068 12.725957 -43.142281 -115.838286 219.231163 
9.794309 29.230095 -9.372323 5.579133 3.821993 -23.105053 -4.360630 -49.310010 17.163510 -41.368251 -105.975826 215.938604 
9.900168 29.302209 -9.822511 5.455830 3.286355 -21.914780 -5.100742 -51.328109 21.393487 -39.628861 -96.792270 212.358362 
10.008947 29.364886 -10.249113 5.265399 2.862542 -20.755364 -5.960648 -53.085974 25.588206 -38.016414 -88.255223 208.524536 
10.108362 29.419533 -10.653274 5.062187 2.466020 -19.631935 -6.625588 -54.690834 29.600720 -36.375460 -80.287441 204.502920 
10.209800 29.467779 -11.033035 4.874438 2.227693 -18.351993 -7.294858 -56.280940 33.623092 -34.823756 -72.961572 200.429633 
10.303815 29.512140 -11.389059 4.805700 1.955303 -17.258350 -7.984403 -57.617714 37.544818 -33.333701 -66.084916 196.243933 
10.397848 29.556966 -11.724142 4.705537 1.802761 -16.249098 -8.692708 -58.966127 41.355357 -31.925718 -59.722111 192.050005 
10.494964 29.593676 -12.039977 4.653904 1.812499 -15.342016 -9.354962 -60.109363 45.163542 -30.557142 -53.780063 187.840461 
10.589428 29.633472 -12.338673 4.432663 1.608290 -14.521998 -9.918925 -61.077343 48.745804 -29.222616 -48.154390 183.607459 
10.679330 29.669311 -12.620876 4.366754 1.461110 -13.655412 -10.362809 -61.990035 52.394612 -27.943977 -42.942915 179.475551 
10.768087 29.699989 -12.886761 4.301264 1.430362 -12.953898 -11.061803 -62.751434 55.895398 -26.745591 -38.014948 175.375085 
10.856135 29.733413 -13.139531 4.027598 1.361357 -12.318846 -11.460556 -63.436801 59.312109 -25.562472 -33.357649 171.285142 
10.941098 29.758963 -13.379718 3.913549 1.115892 -11.691694 -12.092266 -64.065332 62.645516 -24.427814 -28.978583 167.278640 
11.024990 29.784426 -13.609238 3.855965 1.063474 -11.254833 -12.516786 -64.608813 65.907421 -23.333148 -24.824327 163.321874 
11.103528 29.808069 -13.830281 3.751734 1.041581 -10.828147 -12.968760 -65.198580 69.135470 -22.279258 -20.926265 159.452179 
11.181855 29.829642 -14.042476 3.622227 1.002657 -10.417419 -13.351850 -65.542277 72.182110 -21.261044 -17.202307 155.629423 
11.261617 29.851409 -14.247974 3.512335 0.970277 -10.093614 -13.805687 -65.911612 75.278659 -20.287032 -13.682084 151.868546 
11.338800 29.870202 -14.445356 3.442851 0.969051 -9.644318 -14.170912 -66.093531 78.222965 -19.321433 -10.313112 148.150535 
11.411999 29.888467 -14.633639 3.296704 0.884043 -9.157704 -14.571532 -66.282432 81.102910 -18.395952 -7.096611 144.495480 
11.483655 29.904762 -14.811793 3.235624 0.828448 -8.643498 -14.904608 -66.386967 83.931040 -17.506925 -4.027096 140.924052 
11.550696 29.920135 -14.979068 3.142447 0.717543 -8.114159 -15.241240 -66.502560 86.691414 -16.639151 -1.097018 137.411044 
11.625453 29.931719 -15.137270 3.211769 0.790097 -7.686050 -15.584258 -66.551806 89.398700 -15.797906 1.706544 133.956665 
11.692139 29.939565 -15.285732 3.297046 0.798387 -7.194066 -15.897962 -66.435142 91.976107 -14.975421 4.405656 130.549983 
11.764865 29.953543 -15.426337 3.255131 0.831773 -6.880123 -16.098656 -66.339492 94.606776 -14.181285 6.989316 127.190853 
11.875874 29.860881 -15.559200 4.876739 1.422915 -6.520206 -16.424436 -66.128136 97.048351 -13.405611 9.469798 123.882208 
